frequency,raw
20.00,15.68
20.20,15.67
20.40,15.65
20.61,15.63
20.81,15.61
21.02,15.59
21.23,15.57
21.44,15.55
21.66,15.53
21.87,15.51
22.09,15.49
22.31,15.47
22.54,15.45
22.76,15.43
22.99,15.41
23.22,15.39
23.45,15.37
23.69,15.35
23.92,15.32
24.16,15.30
24.40,15.28
24.65,15.25
24.89,15.23
25.14,15.20
25.39,15.18
25.65,15.15
25.91,15.13
26.16,15.10
26.43,15.07
26.69,15.05
26.96,15.02
27.23,15.00
27.50,14.97
27.77,14.94
28.05,14.91
28.33,14.88
28.62,14.85
28.90,14.82
29.19,14.79
29.48,14.77
29.78,14.74
30.08,14.71
30.38,14.68
30.68,14.64
30.99,14.61
31.30,14.57
31.61,14.54
31.93,14.50
32.24,14.47
32.57,14.44
32.89,14.40
33.22,14.37
33.55,14.33
33.89,14.30
34.23,14.26
34.57,14.23
34.92,14.19
35.27,14.15
35.62,14.11
35.97,14.08
36.33,14.04
36.70,14.00
37.06,13.96
37.43,13.92
37.81,13.88
38.19,13.85
38.57,13.80
38.95,13.76
39.34,13.72
39.74,13.68
40.14,13.64
40.54,13.59
40.94,13.55
41.35,13.51
41.76,13.47
42.18,13.43
42.60,13.38
43.03,13.34
43.46,13.29
43.90,13.25
44.33,13.20
44.78,13.16
45.23,13.12
45.68,13.07
46.13,13.02
46.60,12.97
47.06,12.92
47.53,12.87
48.01,12.83
48.49,12.78
48.97,12.73
49.46,12.68
49.96,12.64
50.46,12.59
50.96,12.54
51.47,12.49
51.99,12.44
52.51,12.39
53.03,12.34
53.56,12.29
54.10,12.24
54.64,12.18
55.18,12.13
55.74,12.08
56.29,12.03
56.86,11.97
57.42,11.92
58.00,11.86
58.58,11.81
59.16,11.76
59.76,11.70
60.35,11.65
60.96,11.60
61.57,11.54
62.18,11.48
62.80,11.43
63.43,11.37
64.07,11.32
64.71,11.26
65.35,11.20
66.01,11.15
66.67,11.09
67.33,11.03
68.01,10.98
68.69,10.92
69.37,10.86
70.07,10.80
70.77,10.75
71.48,10.69
72.19,10.63
72.91,10.57
73.64,10.51
74.38,10.45
75.12,10.39
75.87,10.33
76.63,10.27
77.40,10.21
78.17,10.15
78.95,10.09
79.74,10.03
80.54,9.97
81.35,9.91
82.16,9.85
82.98,9.79
83.81,9.72
84.65,9.66
85.50,9.59
86.35,9.53
87.22,9.47
88.09,9.41
88.97,9.35
89.86,9.29
90.76,9.22
91.66,9.16
92.58,9.10
93.51,9.04
94.44,8.97
95.39,8.91
96.34,8.84
97.30,8.78
98.28,8.71
99.26,8.65
100.25,8.59
101.25,8.52
102.27,8.46
103.29,8.39
104.32,8.33
105.37,8.26
106.42,8.20
107.48,8.13
108.56,8.07
109.64,8.00
110.74,7.94
111.85,7.87
112.97,7.81
114.10,7.74
115.24,7.67
116.39,7.61
117.55,7.54
118.73,7.48
119.92,7.41
121.12,7.34
122.33,7.28
123.55,7.21
124.79,7.15
126.03,7.08
127.29,7.01
128.57,6.95
129.85,6.88
131.15,6.81
132.46,6.74
133.79,6.68
135.12,6.61
136.48,6.54
137.84,6.47
139.22,6.41
140.61,6.35
142.02,6.28
143.44,6.21
144.87,6.15
146.32,6.08
147.78,6.01
149.26,5.94
150.75,5.87
152.26,5.81
153.78,5.74
155.32,5.67
156.88,5.61
158.44,5.54
160.03,5.47
161.63,5.40
163.24,5.32
164.88,5.25
166.53,5.18
168.19,5.10
169.87,5.02
171.57,4.96
173.29,4.91
175.02,4.86
176.77,4.77
178.54,4.71
180.32,4.66
182.13,4.60
183.95,4.56
185.79,4.51
187.65,4.46
189.52,4.42
191.42,4.38
193.33,4.34
195.27,4.30
197.22,4.25
199.19,4.21
201.18,4.16
203.19,4.11
205.23,4.05
207.28,3.99
209.35,3.93
211.44,3.88
213.56,3.82
215.69,3.76
217.85,3.71
220.03,3.64
222.23,3.59
224.45,3.53
226.70,3.47
228.96,3.41
231.25,3.36
233.57,3.30
235.90,3.24
238.26,3.17
240.64,3.11
243.05,3.05
245.48,2.99
247.93,2.93
250.41,2.87
252.92,2.81
255.45,2.75
258.00,2.69
260.58,2.63
263.19,2.57
265.82,2.51
268.48,2.45
271.16,2.39
273.87,2.34
276.61,2.28
279.38,2.22
282.17,2.17
284.99,2.11
287.84,2.05
290.72,2.00
293.63,1.94
296.57,1.88
299.53,1.83
302.53,1.77
305.55,1.72
308.61,1.66
311.69,1.61
314.81,1.55
317.96,1.50
321.14,1.45
324.35,1.40
327.59,1.35
330.87,1.30
334.18,1.25
337.52,1.21
340.90,1.16
344.30,1.12
347.75,1.08
351.23,1.04
354.74,1.00
358.28,0.97
361.87,0.94
365.49,0.90
369.14,0.87
372.83,0.84
376.56,0.80
380.33,0.77
384.13,0.74
387.97,0.70
391.85,0.67
395.77,0.63
399.73,0.59
403.72,0.56
407.76,0.52
411.84,0.49
415.96,0.45
420.12,0.41
424.32,0.38
428.56,0.34
432.85,0.31
437.18,0.27
441.55,0.24
445.96,0.20
450.42,0.17
454.93,0.13
459.48,0.10
464.07,0.06
468.71,0.03
473.40,-0.01
478.13,-0.04
482.91,-0.07
487.74,-0.11
492.62,-0.14
497.55,-0.18
502.52,-0.21
507.55,-0.25
512.62,-0.28
517.75,-0.32
522.93,-0.35
528.16,-0.38
533.44,-0.41
538.77,-0.44
544.16,-0.47
549.60,-0.50
555.10,-0.52
560.65,-0.55
566.25,-0.58
571.92,-0.60
577.64,-0.63
583.41,-0.65
589.25,-0.67
595.14,-0.69
601.09,-0.71
607.10,-0.73
613.17,-0.75
619.30,-0.77
625.50,-0.79
631.75,-0.80
638.07,-0.82
644.45,-0.83
650.89,-0.85
657.40,-0.86
663.98,-0.87
670.62,-0.88
677.32,-0.89
684.10,-0.90
690.94,-0.91
697.85,-0.91
704.83,-0.92
711.87,-0.92
718.99,-0.93
726.18,-0.93
733.44,-0.93
740.78,-0.93
748.19,-0.93
755.67,-0.92
763.23,-0.92
770.86,-0.91
778.57,-0.90
786.35,-0.89
794.22,-0.88
802.16,-0.87
810.18,-0.86
818.28,-0.84
826.46,-0.82
834.73,-0.80
843.08,-0.78
851.51,-0.75
860.02,-0.73
868.62,-0.70
877.31,-0.66
886.08,-0.63
894.94,-0.59
903.89,-0.56
912.93,-0.51
922.06,-0.47
931.28,-0.42
940.59,-0.37
950.00,-0.32
959.50,-0.26
969.09,-0.20
978.78,-0.14
988.57,-0.08
998.46,-0.01
1008.44,0.06
1018.53,0.13
1028.71,0.21
1039.00,0.29
1049.39,0.37
1059.88,0.45
1070.48,0.53
1081.19,0.62
1092.00,0.71
1102.92,0.79
1113.95,0.89
1125.09,0.98
1136.34,1.08
1147.70,1.18
1159.18,1.28
1170.77,1.38
1182.48,1.49
1194.30,1.61
1206.25,1.72
1218.31,1.85
1230.49,1.99
1242.80,2.13
1255.22,2.29
1267.78,2.46
1280.45,2.63
1293.26,2.82
1306.19,3.01
1319.25,3.20
1332.45,3.39
1345.77,3.58
1359.23,3.76
1372.82,3.93
1386.55,4.09
1400.41,4.24
1414.42,4.37
1428.56,4.51
1442.85,4.64
1457.28,4.76
1471.85,4.88
1486.57,5.00
1501.43,5.12
1516.45,5.24
1531.61,5.36
1546.93,5.48
1562.40,5.61
1578.02,5.73
1593.80,5.86
1609.74,6.00
1625.84,6.14
1642.10,6.28
1658.52,6.43
1675.10,6.58
1691.85,6.74
1708.77,6.90
1725.86,7.07
1743.12,7.24
1760.55,7.42
1778.15,7.60
1795.94,7.79
1813.90,7.98
1832.03,8.18
1850.36,8.38
1868.86,8.59
1887.55,8.81
1906.42,9.02
1925.49,9.24
1944.74,9.47
1964.19,9.70
1983.83,9.93
2003.67,10.17
2023.71,10.40
2043.94,10.64
2064.38,10.87
2085.03,11.11
2105.88,11.33
2126.94,11.55
2148.20,11.76
2169.69,11.96
2191.38,12.14
2213.30,12.30
2235.43,12.45
2257.78,12.57
2280.36,12.67
2303.17,12.75
2326.20,12.79
2349.46,12.81
2372.95,12.79
2396.68,12.75
2420.65,12.69
2444.86,12.60
2469.31,12.49
2494.00,12.36
2518.94,12.21
2544.13,12.05
2569.57,11.88
2595.27,11.70
2621.22,11.51
2647.43,11.32
2673.90,11.13
2700.64,10.93
2727.65,10.74
2754.93,10.56
2782.48,10.38
2810.30,10.20
2838.40,10.03
2866.79,9.88
2895.46,9.72
2924.41,9.59
2953.65,9.46
2983.19,9.34
3013.02,9.24
3043.15,9.15
3073.58,9.08
3104.32,9.02
3135.36,8.97
3166.72,8.93
3198.38,8.90
3230.37,8.88
3262.67,8.87
3295.30,8.87
3328.25,8.87
3361.53,8.87
3395.15,8.87
3429.10,8.89
3463.39,8.90
3498.03,8.93
3533.01,8.96
3568.34,9.00
3604.02,9.05
3640.06,9.10
3676.46,9.16
3713.22,9.23
3750.36,9.31
3787.86,9.41
3825.74,9.51
3864.00,9.64
3902.64,9.78
3941.66,9.92
3981.08,10.09
4020.89,10.25
4061.10,10.41
4101.71,10.59
4142.73,10.77
4184.15,10.95
4226.00,11.14
4268.26,11.33
4310.94,11.51
4354.05,11.69
4397.59,11.86
4441.56,12.03
4485.98,12.17
4530.84,12.28
4576.15,12.37
4621.91,12.42
4668.13,12.42
4714.81,12.36
4761.96,12.26
4809.58,12.09
4857.67,11.86
4906.25,11.55
4955.31,11.21
5004.87,10.83
5054.91,10.49
5105.46,10.17
5156.52,9.85
5208.08,9.52
5260.16,9.09
5312.77,8.64
5365.89,8.18
5419.55,7.72
5473.75,7.27
5528.49,6.83
5583.77,6.41
5639.61,6.02
5696.00,5.63
5752.96,5.29
5810.49,4.95
5868.60,4.65
5927.28,4.36
5986.56,4.10
6046.42,3.86
6106.89,3.64
6167.96,3.44
6229.64,3.26
6291.93,3.10
6354.85,2.97
6418.40,2.85
6482.58,2.76
6547.41,2.69
6612.88,2.64
6679.01,2.62
6745.80,2.64
6813.26,2.67
6881.39,2.75
6950.21,2.87
7019.71,3.02
7089.91,3.21
7160.81,3.47
7232.41,3.77
7304.74,4.12
7377.79,4.53
7451.56,5.00
7526.08,5.53
7601.34,6.11
7677.35,6.75
7754.13,7.41
7831.67,8.03
7909.98,8.54
7989.08,8.87
8068.98,8.74
8149.67,8.35
8231.16,7.62
8313.47,6.67
8396.61,5.66
8480.57,4.61
8565.38,3.57
8651.03,2.57
8737.54,1.60
8824.92,0.69
8913.17,-0.15
9002.30,-0.96
9092.32,-1.70
9183.25,-2.37
9275.08,-3.01
9367.83,-3.59
9461.51,-4.11
9556.12,-4.59
9651.68,-5.02
9748.20,-5.43
9845.68,-5.77
9944.14,-6.08
10043.58,-6.35
10144.02,-6.58
10245.46,-6.76
10347.91,-6.91
10451.39,-7.03
10555.91,-7.10
10661.46,-7.13
10768.08,-7.13
10875.76,-7.08
10984.52,-6.98
11094.36,-6.84
11205.31,-6.64
11317.36,-6.38
11430.53,-6.07
11544.84,-5.67
11660.29,-5.21
11776.89,-4.69
11894.66,-4.00
12013.60,-3.27
12133.74,-2.49
12255.08,-1.72
12377.63,-1.03
12501.41,-0.59
12626.42,-0.53
12752.68,-0.74
12880.21,-1.16
13009.01,-1.69
13139.10,-2.22
13270.49,-2.76
13403.20,-3.29
13537.23,-3.70
13672.60,-4.04
13809.33,-4.28
13947.42,-4.37
14086.90,-4.28
14227.77,-4.07
14370.04,-3.68
14513.74,-3.03
14658.88,-2.00
14805.47,-0.79
14953.52,0.71
15103.06,1.61
15254.09,2.18
15406.63,0.08
15560.70,-2.14
15716.30,-4.57
15873.47,-6.66
16032.20,-8.57
16192.52,-10.16
16354.45,-11.55
16517.99,-12.81
16683.17,-13.85
16850.01,-14.75
17018.51,-15.55
17188.69,-16.20
17360.58,-16.74
17534.18,-17.18
17709.53,-17.50
17886.62,-17.73
18065.49,-17.85
18246.14,-17.80
18428.60,-17.61
18612.89,-17.28
18799.02,-16.88
18987.01,-16.50
19176.88,-16.69
19368.65,-17.99
19562.33,-20.54
19757.96,-24.28
19955.54,-28.03
