frequency,raw
20.00,11.00
20.20,10.97
20.40,10.95
20.61,10.93
20.81,10.90
21.02,10.87
21.23,10.84
21.44,10.82
21.66,10.80
21.87,10.78
22.09,10.77
22.31,10.76
22.54,10.74
22.76,10.72
22.99,10.70
23.22,10.67
23.45,10.65
23.69,10.61
23.92,10.58
24.16,10.55
24.40,10.52
24.65,10.49
24.89,10.46
25.14,10.42
25.39,10.39
25.65,10.35
25.91,10.31
26.16,10.27
26.43,10.23
26.69,10.20
26.96,10.18
27.23,10.15
27.50,10.13
27.77,10.10
28.05,10.06
28.33,10.00
28.62,9.94
28.90,9.88
29.19,9.83
29.48,9.78
29.78,9.74
30.08,9.71
30.38,9.68
30.68,9.65
30.99,9.62
31.30,9.58
31.61,9.54
31.93,9.50
32.24,9.45
32.57,9.40
32.89,9.35
33.22,9.30
33.55,9.26
33.89,9.22
34.23,9.17
34.57,9.13
34.92,9.08
35.27,9.03
35.62,8.97
35.97,8.91
36.33,8.86
36.70,8.81
37.06,8.76
37.43,8.71
37.81,8.65
38.19,8.60
38.57,8.55
38.95,8.50
39.34,8.45
39.74,8.40
40.14,8.34
40.54,8.28
40.94,8.22
41.35,8.16
41.76,8.10
42.18,8.05
42.60,7.99
43.03,7.94
43.46,7.88
43.90,7.81
44.33,7.75
44.78,7.69
45.23,7.63
45.68,7.58
46.13,7.53
46.60,7.46
47.06,7.40
47.53,7.34
48.01,7.28
48.49,7.23
48.97,7.17
49.46,7.12
49.96,7.05
50.46,6.97
50.96,6.90
51.47,6.83
51.99,6.77
52.51,6.71
53.03,6.66
53.56,6.60
54.10,6.54
54.64,6.47
55.18,6.40
55.74,6.32
56.29,6.25
56.86,6.18
57.42,6.12
58.00,6.06
58.58,5.99
59.16,5.91
59.76,5.84
60.35,5.78
60.96,5.71
61.57,5.64
62.18,5.58
62.80,5.52
63.43,5.45
64.07,5.38
64.71,5.32
65.35,5.25
66.01,5.18
66.67,5.11
67.33,5.05
68.01,4.98
68.69,4.91
69.37,4.85
70.07,4.79
70.77,4.72
71.48,4.65
72.19,4.58
72.91,4.50
73.64,4.44
74.38,4.37
75.12,4.30
75.87,4.24
76.63,4.17
77.40,4.10
78.17,4.03
78.95,3.97
79.74,3.90
80.54,3.83
81.35,3.76
82.16,3.69
82.98,3.62
83.81,3.55
84.65,3.51
85.50,3.44
86.35,3.36
87.22,3.31
88.09,3.23
88.97,3.16
89.86,3.11
90.76,3.03
91.66,2.96
92.58,2.92
93.51,2.84
94.44,2.79
95.39,2.73
96.34,2.64
97.30,2.56
98.28,2.52
99.26,2.48
100.25,2.41
101.25,2.35
102.27,2.27
103.29,2.19
104.32,2.14
105.37,2.08
106.42,2.02
107.48,1.96
108.56,1.89
109.64,1.83
110.74,1.77
111.85,1.71
112.97,1.64
114.10,1.58
115.24,1.52
116.39,1.45
117.55,1.39
118.73,1.33
119.92,1.27
121.12,1.21
122.33,1.16
123.55,1.10
124.79,1.04
126.03,0.98
127.29,0.92
128.57,0.86
129.85,0.80
131.15,0.75
132.46,0.72
133.79,0.68
135.12,0.61
136.48,0.54
137.84,0.47
139.22,0.41
140.61,0.35
142.02,0.30
143.44,0.24
144.87,0.18
146.32,0.18
147.78,0.16
149.26,0.07
150.75,-0.01
152.26,-0.07
153.78,-0.11
155.32,-0.15
156.88,-0.21
158.44,-0.26
160.03,-0.30
161.63,-0.39
163.24,-0.45
164.88,-0.48
166.53,-0.49
168.19,-0.50
169.87,-0.52
171.57,-0.58
173.29,-0.65
175.02,-0.73
176.77,-0.75
178.54,-0.78
180.32,-0.83
182.13,-0.88
183.95,-0.92
185.79,-0.95
187.65,-0.98
189.52,-1.02
191.42,-1.08
193.33,-1.15
195.27,-1.20
197.22,-1.20
199.19,-1.25
201.18,-1.28
203.19,-1.28
205.23,-1.34
207.28,-1.40
209.35,-1.45
211.44,-1.46
213.56,-1.48
215.69,-1.51
217.85,-1.54
220.03,-1.59
222.23,-1.61
224.45,-1.64
226.70,-1.66
228.96,-1.70
231.25,-1.73
233.57,-1.76
235.90,-1.80
238.26,-1.82
240.64,-1.84
243.05,-1.87
245.48,-1.90
247.93,-1.94
250.41,-1.97
252.92,-2.00
255.45,-2.02
258.00,-2.04
260.58,-2.07
263.19,-2.11
265.82,-2.13
268.48,-2.15
271.16,-2.17
273.87,-2.20
276.61,-2.23
279.38,-2.25
282.17,-2.28
284.99,-2.30
287.84,-2.33
290.72,-2.36
293.63,-2.38
296.57,-2.39
299.53,-2.40
302.53,-2.42
305.55,-2.44
308.61,-2.46
311.69,-2.50
314.81,-2.51
317.96,-2.53
321.14,-2.56
324.35,-2.58
327.59,-2.59
330.87,-2.60
334.18,-2.62
337.52,-2.64
340.90,-2.66
344.30,-2.67
347.75,-2.69
351.23,-2.70
354.74,-2.70
358.28,-2.72
361.87,-2.73
365.49,-2.74
369.14,-2.76
372.83,-2.77
376.56,-2.77
380.33,-2.77
384.13,-2.78
387.97,-2.79
391.85,-2.80
395.77,-2.81
399.73,-2.82
403.72,-2.82
407.76,-2.83
411.84,-2.82
415.96,-2.83
420.12,-2.84
424.32,-2.84
428.56,-2.85
432.85,-2.85
437.18,-2.85
441.55,-2.85
445.96,-2.85
450.42,-2.84
454.93,-2.85
459.48,-2.85
464.07,-2.85
468.71,-2.85
473.40,-2.85
478.13,-2.85
482.91,-2.84
487.74,-2.84
492.62,-2.83
497.55,-2.82
502.52,-2.82
507.55,-2.82
512.62,-2.81
517.75,-2.80
522.93,-2.79
528.16,-2.78
533.44,-2.77
538.77,-2.76
544.16,-2.74
549.60,-2.73
555.10,-2.71
560.65,-2.69
566.25,-2.67
571.92,-2.65
577.64,-2.64
583.41,-2.62
589.25,-2.60
595.14,-2.58
601.09,-2.55
607.10,-2.54
613.17,-2.52
619.30,-2.50
625.50,-2.47
631.75,-2.44
638.07,-2.42
644.45,-2.39
650.89,-2.36
657.40,-2.33
663.98,-2.30
670.62,-2.26
677.32,-2.23
684.10,-2.20
690.94,-2.17
697.85,-2.13
704.83,-2.09
711.87,-2.05
718.99,-2.02
726.18,-1.98
733.44,-1.94
740.78,-1.90
748.19,-1.86
755.67,-1.81
763.23,-1.76
770.86,-1.72
778.57,-1.68
786.35,-1.63
794.22,-1.58
802.16,-1.53
810.18,-1.48
818.28,-1.43
826.46,-1.38
834.73,-1.32
843.08,-1.26
851.51,-1.21
860.02,-1.15
868.62,-1.09
877.31,-1.03
886.08,-0.97
894.94,-0.92
903.89,-0.85
912.93,-0.77
922.06,-0.69
931.28,-0.61
940.59,-0.54
950.00,-0.47
959.50,-0.38
969.09,-0.29
978.78,-0.20
988.57,-0.11
998.46,-0.02
1008.44,0.09
1018.53,0.19
1028.71,0.30
1039.00,0.41
1049.39,0.52
1059.88,0.63
1070.48,0.74
1081.19,0.86
1092.00,0.97
1102.92,1.09
1113.95,1.21
1125.09,1.32
1136.34,1.43
1147.70,1.55
1159.18,1.66
1170.77,1.77
1182.48,1.88
1194.30,1.98
1206.25,2.09
1218.31,2.19
1230.49,2.29
1242.80,2.39
1255.22,2.48
1267.78,2.58
1280.45,2.67
1293.26,2.75
1306.19,2.84
1319.25,2.92
1332.45,3.00
1345.77,3.08
1359.23,3.15
1372.82,3.23
1386.55,3.30
1400.41,3.36
1414.42,3.43
1428.56,3.50
1442.85,3.56
1457.28,3.62
1471.85,3.68
1486.57,3.74
1501.43,3.79
1516.45,3.85
1531.61,3.90
1546.93,3.95
1562.40,4.00
1578.02,4.05
1593.80,4.09
1609.74,4.14
1625.84,4.18
1642.10,4.22
1658.52,4.25
1675.10,4.29
1691.85,4.31
1708.77,4.34
1725.86,4.36
1743.12,4.39
1760.55,4.40
1778.15,4.42
1795.94,4.43
1813.90,4.44
1832.03,4.44
1850.36,4.44
1868.86,4.43
1887.55,4.43
1906.42,4.42
1925.49,4.41
1944.74,4.40
1964.19,4.38
1983.83,4.37
2003.67,4.36
2023.71,4.34
2043.94,4.32
2064.38,4.30
2085.03,4.28
2105.88,4.27
2126.94,4.25
2148.20,4.22
2169.69,4.20
2191.38,4.18
2213.30,4.16
2235.43,4.15
2257.78,4.14
2280.36,4.13
2303.17,4.14
2326.20,4.14
2349.46,4.14
2372.95,4.16
2396.68,4.18
2420.65,4.20
2444.86,4.23
2469.31,4.26
2494.00,4.30
2518.94,4.36
2544.13,4.41
2569.57,4.47
2595.27,4.55
2621.22,4.63
2647.43,4.72
2673.90,4.81
2700.64,4.89
2727.65,4.98
2754.93,5.05
2782.48,5.12
2810.30,5.18
2838.40,5.24
2866.79,5.29
2895.46,5.34
2924.41,5.38
2953.65,5.43
2983.19,5.47
3013.02,5.51
3043.15,5.55
3073.58,5.59
3104.32,5.64
3135.36,5.68
3166.72,5.71
3198.38,5.74
3230.37,5.76
3262.67,5.77
3295.30,5.76
3328.25,5.77
3361.53,5.76
3395.15,5.76
3429.10,5.75
3463.39,5.74
3498.03,5.72
3533.01,5.72
3568.34,5.70
3604.02,5.69
3640.06,5.67
3676.46,5.64
3713.22,5.61
3750.36,5.58
3787.86,5.55
3825.74,5.51
3864.00,5.47
3902.64,5.43
3941.66,5.38
3981.08,5.32
4020.89,5.27
4061.10,5.24
4101.71,5.19
4142.73,5.13
4184.15,5.06
4226.00,4.96
4268.26,4.85
4310.94,4.72
4354.05,4.54
4397.59,4.34
4441.56,4.13
4485.98,3.88
4530.84,3.63
4576.15,3.39
4621.91,3.14
4668.13,2.92
4714.81,2.71
4761.96,2.53
4809.58,2.38
4857.67,2.24
4906.25,2.12
4955.31,2.00
5004.87,1.89
5054.91,1.78
5105.46,1.66
5156.52,1.54
5208.08,1.40
5260.16,1.25
5312.77,1.08
5365.89,0.90
5419.55,0.71
5473.75,0.50
5528.49,0.29
5583.77,0.08
5639.61,-0.13
5696.00,-0.34
5752.96,-0.54
5810.49,-0.75
5868.60,-0.93
5927.28,-1.13
5986.56,-1.34
6046.42,-1.49
6106.89,-1.62
6167.96,-1.76
6229.64,-1.89
6291.93,-2.00
6354.85,-2.09
6418.40,-2.15
6482.58,-2.20
6547.41,-2.22
6612.88,-2.23
6679.01,-2.19
6745.80,-2.13
6813.26,-2.05
6881.39,-1.93
6950.21,-1.80
7019.71,-1.62
7089.91,-1.32
7160.81,-0.95
7232.41,-0.59
7304.74,-0.22
7377.79,0.24
7451.56,0.80
7526.08,1.42
7601.34,2.06
7677.35,2.70
7754.13,3.34
7831.67,3.95
7909.98,4.42
7989.08,4.67
8068.98,4.53
8149.67,4.21
8231.16,3.69
8313.47,3.03
8396.61,2.34
8480.57,1.62
8565.38,0.90
8651.03,0.20
8737.54,-0.49
8824.92,-1.14
8913.17,-1.70
9002.30,-2.24
9092.32,-2.66
9183.25,-3.03
9275.08,-3.34
9367.83,-3.56
9461.51,-3.71
9556.12,-3.79
9651.68,-3.79
9748.20,-3.73
9845.68,-3.60
9944.14,-3.46
10043.58,-3.28
10144.02,-3.05
10245.46,-3.04
10347.91,-3.21
10451.39,-3.58
10555.91,-4.17
10661.46,-4.81
10768.08,-5.46
10875.76,-5.98
10984.52,-6.41
11094.36,-6.81
11205.31,-7.22
11317.36,-7.67
11430.53,-8.13
11544.84,-8.64
11660.29,-9.17
11776.89,-9.69
11894.66,-10.16
12013.60,-10.63
12133.74,-11.09
12255.08,-11.49
12377.63,-11.83
12501.41,-12.13
12626.42,-12.37
12752.68,-12.59
12880.21,-12.73
13009.01,-12.84
13139.10,-12.95
13270.49,-12.91
13403.20,-12.88
13537.23,-12.82
13672.60,-12.68
13809.33,-12.46
13947.42,-12.13
14086.90,-11.73
14227.77,-11.29
14370.04,-10.73
14513.74,-10.03
14658.88,-9.11
14805.47,-8.08
14953.52,-6.90
15103.06,-5.75
15254.09,-4.66
15406.63,-4.80
15560.70,-5.56
15716.30,-7.29
15873.47,-9.38
16032.20,-11.56
16192.52,-13.77
16354.45,-16.31
16517.99,-19.11
16683.17,-22.56
16850.01,-25.98
17018.51,-29.51
17188.69,-34.09
17360.58,-32.70
17534.18,-28.29
17709.53,-25.13
17886.62,-22.73
18065.49,-21.07
18246.14,-20.32
18428.60,-19.91
18612.89,-19.25
18799.02,-18.64
18987.01,-18.66
19176.88,-18.57
19368.65,-19.20
19562.33,-20.53
19757.96,-22.38
19955.54,-24.23
