frequency,raw
20.00,14.07
20.20,14.06
20.40,14.05
20.61,14.04
20.81,14.03
21.02,14.02
21.23,14.00
21.44,13.99
21.66,13.98
21.87,13.96
22.09,13.95
22.31,13.93
22.54,13.92
22.76,13.91
22.99,13.89
23.22,13.88
23.45,13.87
23.69,13.86
23.92,13.84
24.16,13.83
24.40,13.81
24.65,13.80
24.89,13.78
25.14,13.75
25.39,13.73
25.65,13.71
25.91,13.69
26.16,13.67
26.43,13.65
26.69,13.63
26.96,13.62
27.23,13.60
27.50,13.58
27.77,13.55
28.05,13.53
28.33,13.50
28.62,13.47
28.90,13.44
29.19,13.43
29.48,13.41
29.78,13.40
30.08,13.38
30.38,13.35
30.68,13.31
30.99,13.26
31.30,13.21
31.61,13.17
31.93,13.13
32.24,13.10
32.57,13.07
32.89,13.04
33.22,13.01
33.55,12.97
33.89,12.93
34.23,12.89
34.57,12.85
34.92,12.81
35.27,12.78
35.62,12.74
35.97,12.70
36.33,12.66
36.70,12.62
37.06,12.58
37.43,12.54
37.81,12.50
38.19,12.46
38.57,12.41
38.95,12.37
39.34,12.32
39.74,12.27
40.14,12.22
40.54,12.18
40.94,12.13
41.35,12.08
41.76,12.04
42.18,11.99
42.60,11.94
43.03,11.90
43.46,11.84
43.90,11.79
44.33,11.73
44.78,11.68
45.23,11.63
45.68,11.58
46.13,11.53
46.60,11.48
47.06,11.42
47.53,11.37
48.01,11.31
48.49,11.24
48.97,11.18
49.46,11.12
49.96,11.07
50.46,11.01
50.96,10.95
51.47,10.89
51.99,10.83
52.51,10.78
53.03,10.73
53.56,10.66
54.10,10.59
54.64,10.52
55.18,10.46
55.74,10.39
56.29,10.33
56.86,10.26
57.42,10.20
58.00,10.14
58.58,10.08
59.16,10.01
59.76,9.93
60.35,9.85
60.96,9.78
61.57,9.71
62.18,9.66
62.80,9.59
63.43,9.52
64.07,9.44
64.71,9.37
65.35,9.29
66.01,9.22
66.67,9.15
67.33,9.08
68.01,9.01
68.69,8.94
69.37,8.87
70.07,8.79
70.77,8.71
71.48,8.64
72.19,8.57
72.91,8.49
73.64,8.41
74.38,8.34
75.12,8.26
75.87,8.18
76.63,8.10
77.40,8.02
78.17,7.94
78.95,7.87
79.74,7.79
80.54,7.72
81.35,7.64
82.16,7.55
82.98,7.47
83.81,7.39
84.65,7.31
85.50,7.23
86.35,7.15
87.22,7.07
88.09,6.99
88.97,6.91
89.86,6.83
90.76,6.75
91.66,6.67
92.58,6.58
93.51,6.50
94.44,6.42
95.39,6.34
96.34,6.25
97.30,6.19
98.28,6.11
99.26,6.02
100.25,5.92
101.25,5.85
102.27,5.77
103.29,5.69
104.32,5.60
105.37,5.52
106.42,5.44
107.48,5.35
108.56,5.27
109.64,5.19
110.74,5.10
111.85,5.02
112.97,4.94
114.10,4.86
115.24,4.78
116.39,4.70
117.55,4.61
118.73,4.53
119.92,4.45
121.12,4.37
122.33,4.29
123.55,4.21
124.79,4.12
126.03,4.05
127.29,3.97
128.57,3.88
129.85,3.81
131.15,3.73
132.46,3.64
133.79,3.54
135.12,3.48
136.48,3.42
137.84,3.35
139.22,3.29
140.61,3.22
142.02,3.13
143.44,3.04
144.87,2.98
146.32,2.91
147.78,2.84
149.26,2.79
150.75,2.73
152.26,2.65
153.78,2.57
155.32,2.50
156.88,2.42
158.44,2.35
160.03,2.28
161.63,2.21
163.24,2.15
164.88,2.08
166.53,2.03
168.19,1.96
169.87,1.87
171.57,1.80
173.29,1.74
175.02,1.69
176.77,1.60
178.54,1.53
180.32,1.47
182.13,1.41
183.95,1.35
185.79,1.29
187.65,1.23
189.52,1.16
191.42,1.11
193.33,1.05
195.27,0.98
197.22,0.90
199.19,0.87
201.18,0.81
203.19,0.73
205.23,0.69
207.28,0.63
209.35,0.56
211.44,0.48
213.56,0.44
215.69,0.40
217.85,0.34
220.03,0.28
222.23,0.23
224.45,0.18
226.70,0.11
228.96,0.05
231.25,0.01
233.57,-0.04
235.90,-0.10
238.26,-0.15
240.64,-0.19
243.05,-0.25
245.48,-0.30
247.93,-0.35
250.41,-0.39
252.92,-0.43
255.45,-0.48
258.00,-0.53
260.58,-0.56
263.19,-0.60
265.82,-0.66
268.48,-0.71
271.16,-0.76
273.87,-0.80
276.61,-0.83
279.38,-0.87
282.17,-0.92
284.99,-0.97
287.84,-1.00
290.72,-1.03
293.63,-1.06
296.57,-1.10
299.53,-1.14
302.53,-1.19
305.55,-1.22
308.61,-1.26
311.69,-1.29
314.81,-1.32
317.96,-1.36
321.14,-1.39
324.35,-1.42
327.59,-1.45
330.87,-1.49
334.18,-1.52
337.52,-1.55
340.90,-1.58
344.30,-1.61
347.75,-1.64
351.23,-1.66
354.74,-1.69
358.28,-1.72
361.87,-1.75
365.49,-1.77
369.14,-1.79
372.83,-1.81
376.56,-1.83
380.33,-1.86
384.13,-1.88
387.97,-1.90
391.85,-1.92
395.77,-1.94
399.73,-1.96
403.72,-1.98
407.76,-1.99
411.84,-2.01
415.96,-2.02
420.12,-2.04
424.32,-2.05
428.56,-2.07
432.85,-2.08
437.18,-2.10
441.55,-2.10
445.96,-2.11
450.42,-2.13
454.93,-2.13
459.48,-2.14
464.07,-2.15
468.71,-2.16
473.40,-2.17
478.13,-2.17
482.91,-2.18
487.74,-2.18
492.62,-2.19
497.55,-2.19
502.52,-2.19
507.55,-2.20
512.62,-2.20
517.75,-2.19
522.93,-2.19
528.16,-2.19
533.44,-2.19
538.77,-2.19
544.16,-2.19
549.60,-2.18
555.10,-2.18
560.65,-2.17
566.25,-2.16
571.92,-2.15
577.64,-2.14
583.41,-2.13
589.25,-2.12
595.14,-2.10
601.09,-2.09
607.10,-2.08
613.17,-2.06
619.30,-2.05
625.50,-2.03
631.75,-2.01
638.07,-1.99
644.45,-1.97
650.89,-1.95
657.40,-1.93
663.98,-1.91
670.62,-1.88
677.32,-1.85
684.10,-1.83
690.94,-1.80
697.85,-1.77
704.83,-1.74
711.87,-1.71
718.99,-1.69
726.18,-1.65
733.44,-1.62
740.78,-1.59
748.19,-1.56
755.67,-1.52
763.23,-1.48
770.86,-1.45
778.57,-1.41
786.35,-1.37
794.22,-1.33
802.16,-1.29
810.18,-1.26
818.28,-1.21
826.46,-1.17
834.73,-1.13
843.08,-1.09
851.51,-1.04
860.02,-0.99
868.62,-0.94
877.31,-0.89
886.08,-0.84
894.94,-0.78
903.89,-0.73
912.93,-0.67
922.06,-0.61
931.28,-0.55
940.59,-0.48
950.00,-0.41
959.50,-0.34
969.09,-0.27
978.78,-0.19
988.57,-0.11
998.46,-0.01
1008.44,0.06
1018.53,0.14
1028.71,0.23
1039.00,0.32
1049.39,0.41
1059.88,0.50
1070.48,0.60
1081.19,0.69
1092.00,0.79
1102.92,0.89
1113.95,0.99
1125.09,1.09
1136.34,1.18
1147.70,1.28
1159.18,1.37
1170.77,1.46
1182.48,1.55
1194.30,1.64
1206.25,1.73
1218.31,1.82
1230.49,1.91
1242.80,1.99
1255.22,2.07
1267.78,2.14
1280.45,2.22
1293.26,2.29
1306.19,2.37
1319.25,2.44
1332.45,2.50
1345.77,2.57
1359.23,2.64
1372.82,2.70
1386.55,2.76
1400.41,2.82
1414.42,2.87
1428.56,2.93
1442.85,2.99
1457.28,3.04
1471.85,3.09
1486.57,3.14
1501.43,3.19
1516.45,3.24
1531.61,3.29
1546.93,3.34
1562.40,3.39
1578.02,3.43
1593.80,3.48
1609.74,3.52
1625.84,3.56
1642.10,3.60
1658.52,3.64
1675.10,3.68
1691.85,3.72
1708.77,3.75
1725.86,3.79
1743.12,3.82
1760.55,3.85
1778.15,3.88
1795.94,3.90
1813.90,3.93
1832.03,3.96
1850.36,3.98
1868.86,4.00
1887.55,4.02
1906.42,4.03
1925.49,4.05
1944.74,4.07
1964.19,4.08
1983.83,4.10
2003.67,4.12
2023.71,4.13
2043.94,4.14
2064.38,4.16
2085.03,4.18
2105.88,4.21
2126.94,4.23
2148.20,4.25
2169.69,4.26
2191.38,4.28
2213.30,4.29
2235.43,4.31
2257.78,4.32
2280.36,4.34
2303.17,4.36
2326.20,4.39
2349.46,4.42
2372.95,4.45
2396.68,4.49
2420.65,4.53
2444.86,4.59
2469.31,4.64
2494.00,4.70
2518.94,4.76
2544.13,4.82
2569.57,4.89
2595.27,4.95
2621.22,5.02
2647.43,5.08
2673.90,5.15
2700.64,5.22
2727.65,5.29
2754.93,5.35
2782.48,5.42
2810.30,5.49
2838.40,5.56
2866.79,5.63
2895.46,5.70
2924.41,5.77
2953.65,5.84
2983.19,5.92
3013.02,6.00
3043.15,6.08
3073.58,6.15
3104.32,6.22
3135.36,6.28
3166.72,6.34
3198.38,6.39
3230.37,6.42
3262.67,6.45
3295.30,6.47
3328.25,6.46
3361.53,6.45
3395.15,6.41
3429.10,6.35
3463.39,6.26
3498.03,6.15
3533.01,5.97
3568.34,5.77
3604.02,5.54
3640.06,5.28
3676.46,5.02
3713.22,4.77
3750.36,4.55
3787.86,4.38
3825.74,4.23
3864.00,4.14
3902.64,4.09
3941.66,4.05
3981.08,4.09
4020.89,4.09
4061.10,4.05
4101.71,4.06
4142.73,4.08
4184.15,4.09
4226.00,4.09
4268.26,4.09
4310.94,4.09
4354.05,4.09
4397.59,4.08
4441.56,4.07
4485.98,4.05
4530.84,4.03
4576.15,4.00
4621.91,3.97
4668.13,3.93
4714.81,3.89
4761.96,3.84
4809.58,3.78
4857.67,3.72
4906.25,3.64
4955.31,3.56
5004.87,3.46
5054.91,3.34
5105.46,3.20
5156.52,3.05
5208.08,2.89
5260.16,2.71
5312.77,2.52
5365.89,2.31
5419.55,2.10
5473.75,1.88
5528.49,1.65
5583.77,1.41
5639.61,1.17
5696.00,0.93
5752.96,0.70
5810.49,0.47
5868.60,0.24
5927.28,-0.02
5986.56,-0.32
6046.42,-0.44
6106.89,-0.55
6167.96,-0.71
6229.64,-0.86
6291.93,-0.99
6354.85,-1.09
6418.40,-1.17
6482.58,-1.22
6547.41,-1.26
6612.88,-1.27
6679.01,-1.25
6745.80,-1.19
6813.26,-1.10
6881.39,-0.97
6950.21,-0.82
7019.71,-0.64
7089.91,-0.39
7160.81,-0.13
7232.41,0.17
7304.74,0.51
7377.79,0.95
7451.56,1.48
7526.08,2.10
7601.34,2.80
7677.35,3.47
7754.13,4.12
7831.67,4.67
7909.98,5.13
7989.08,5.45
8068.98,5.43
8149.67,5.24
8231.16,4.85
8313.47,4.27
8396.61,3.60
8480.57,2.84
8565.38,2.06
8651.03,1.27
8737.54,0.51
8824.92,-0.21
8913.17,-0.86
9002.30,-1.49
9092.32,-2.00
9183.25,-2.44
9275.08,-2.83
9367.83,-3.16
9461.51,-3.38
9556.12,-3.54
9651.68,-3.63
9748.20,-3.67
9845.68,-3.72
9944.14,-3.70
10043.58,-3.77
10144.02,-4.01
10245.46,-4.09
10347.91,-4.14
10451.39,-4.16
10555.91,-4.05
10661.46,-3.81
10768.08,-3.46
10875.76,-3.04
10984.52,-2.68
11094.36,-2.37
11205.31,-2.16
11317.36,-2.11
11430.53,-2.13
11544.84,-2.32
11660.29,-2.61
11776.89,-2.96
11894.66,-3.42
12013.60,-3.89
12133.74,-4.37
12255.08,-4.84
12377.63,-5.30
12501.41,-5.73
12626.42,-6.09
12752.68,-6.41
12880.21,-6.66
13009.01,-6.88
13139.10,-7.10
13270.49,-7.20
13403.20,-7.28
13537.23,-7.27
13672.60,-7.21
13809.33,-7.09
13947.42,-6.91
14086.90,-6.62
14227.77,-6.28
14370.04,-5.85
14513.74,-5.32
14658.88,-4.59
14805.47,-3.75
14953.52,-2.74
15103.06,-1.61
15254.09,-0.43
15406.63,0.45
15560.70,0.83
15716.30,0.41
15873.47,-0.87
16032.20,-2.39
16192.52,-3.93
16354.45,-5.27
16517.99,-6.49
16683.17,-7.43
16850.01,-8.26
17018.51,-9.01
17188.69,-9.82
17360.58,-10.51
17534.18,-11.05
17709.53,-11.22
17886.62,-11.09
18065.49,-10.95
18246.14,-10.93
18428.60,-11.32
18612.89,-11.60
18799.02,-11.69
18987.01,-11.41
19176.88,-11.08
19368.65,-11.38
19562.33,-12.44
19757.96,-14.23
19955.54,-16.02
