frequency,raw
20.00,15.54
20.20,15.53
20.40,15.52
20.61,15.52
20.81,15.51
21.02,15.50
21.23,15.49
21.44,15.48
21.66,15.47
21.87,15.46
22.09,15.45
22.31,15.44
22.54,15.43
22.76,15.42
22.99,15.41
23.22,15.40
23.45,15.39
23.69,15.37
23.92,15.36
24.16,15.34
24.40,15.33
24.65,15.31
24.89,15.30
25.14,15.29
25.39,15.27
25.65,15.26
25.91,15.25
26.16,15.24
26.43,15.23
26.69,15.21
26.96,15.19
27.23,15.16
27.50,15.14
27.77,15.11
28.05,15.09
28.33,15.07
28.62,15.05
28.90,15.03
29.19,15.01
29.48,14.98
29.78,14.96
30.08,14.93
30.38,14.91
30.68,14.88
30.99,14.86
31.30,14.84
31.61,14.82
31.93,14.80
32.24,14.77
32.57,14.74
32.89,14.71
33.22,14.68
33.55,14.65
33.89,14.62
34.23,14.59
34.57,14.56
34.92,14.52
35.27,14.49
35.62,14.46
35.97,14.43
36.33,14.40
36.70,14.36
37.06,14.32
37.43,14.28
37.81,14.24
38.19,14.20
38.57,14.17
38.95,14.13
39.34,14.09
39.74,14.06
40.14,14.02
40.54,13.97
40.94,13.93
41.35,13.89
41.76,13.84
42.18,13.80
42.60,13.75
43.03,13.71
43.46,13.66
43.90,13.62
44.33,13.58
44.78,13.53
45.23,13.48
45.68,13.43
46.13,13.38
46.60,13.34
47.06,13.29
47.53,13.23
48.01,13.17
48.49,13.12
48.97,13.07
49.46,13.02
49.96,12.96
50.46,12.90
50.96,12.85
51.47,12.80
51.99,12.74
52.51,12.69
53.03,12.62
53.56,12.57
54.10,12.52
54.64,12.47
55.18,12.41
55.74,12.33
56.29,12.26
56.86,12.20
57.42,12.14
58.00,12.09
58.58,12.03
59.16,11.97
59.76,11.90
60.35,11.84
60.96,11.77
61.57,11.71
62.18,11.64
62.80,11.57
63.43,11.50
64.07,11.43
64.71,11.37
65.35,11.30
66.01,11.23
66.67,11.16
67.33,11.09
68.01,11.01
68.69,10.94
69.37,10.86
70.07,10.79
70.77,10.72
71.48,10.65
72.19,10.58
72.91,10.50
73.64,10.42
74.38,10.35
75.12,10.27
75.87,10.19
76.63,10.12
77.40,10.04
78.17,9.96
78.95,9.88
79.74,9.81
80.54,9.73
81.35,9.65
82.16,9.57
82.98,9.49
83.81,9.41
84.65,9.32
85.50,9.24
86.35,9.16
87.22,9.07
88.09,8.99
88.97,8.91
89.86,8.83
90.76,8.75
91.66,8.67
92.58,8.58
93.51,8.50
94.44,8.41
95.39,8.32
96.34,8.23
97.30,8.16
98.28,8.07
99.26,7.99
100.25,7.91
101.25,7.83
102.27,7.73
103.29,7.64
104.32,7.56
105.37,7.47
106.42,7.39
107.48,7.30
108.56,7.21
109.64,7.12
110.74,7.03
111.85,6.95
112.97,6.86
114.10,6.77
115.24,6.68
116.39,6.60
117.55,6.51
118.73,6.42
119.92,6.33
121.12,6.24
122.33,6.16
123.55,6.07
124.79,5.98
126.03,5.89
127.29,5.80
128.57,5.71
129.85,5.63
131.15,5.55
132.46,5.46
133.79,5.37
135.12,5.28
136.48,5.19
137.84,5.12
139.22,5.04
140.61,4.96
142.02,4.86
143.44,4.78
144.87,4.71
146.32,4.64
147.78,4.56
149.26,4.48
150.75,4.40
152.26,4.32
153.78,4.24
155.32,4.16
156.88,4.07
158.44,3.99
160.03,3.90
161.63,3.81
163.24,3.73
164.88,3.66
166.53,3.57
168.19,3.49
169.87,3.42
171.57,3.35
173.29,3.28
175.02,3.20
176.77,3.12
178.54,3.04
180.32,2.97
182.13,2.90
183.95,2.82
185.79,2.74
187.65,2.67
189.52,2.60
191.42,2.52
193.33,2.44
195.27,2.38
197.22,2.31
199.19,2.24
201.18,2.16
203.19,2.08
205.23,1.99
207.28,1.92
209.35,1.86
211.44,1.79
213.56,1.73
215.69,1.67
217.85,1.60
220.03,1.52
222.23,1.46
224.45,1.40
226.70,1.33
228.96,1.25
231.25,1.18
233.57,1.12
235.90,1.07
238.26,1.00
240.64,0.94
243.05,0.88
245.48,0.82
247.93,0.76
250.41,0.69
252.92,0.64
255.45,0.57
258.00,0.50
260.58,0.46
263.19,0.41
265.82,0.35
268.48,0.29
271.16,0.23
273.87,0.18
276.61,0.13
279.38,0.07
282.17,0.02
284.99,-0.03
287.84,-0.09
290.72,-0.15
293.63,-0.20
296.57,-0.25
299.53,-0.29
302.53,-0.34
305.55,-0.39
308.61,-0.43
311.69,-0.47
314.81,-0.52
317.96,-0.56
321.14,-0.60
324.35,-0.65
327.59,-0.69
330.87,-0.73
334.18,-0.77
337.52,-0.81
340.90,-0.85
344.30,-0.89
347.75,-0.94
351.23,-0.98
354.74,-1.01
358.28,-1.05
361.87,-1.08
365.49,-1.11
369.14,-1.15
372.83,-1.18
376.56,-1.21
380.33,-1.25
384.13,-1.28
387.97,-1.30
391.85,-1.33
395.77,-1.36
399.73,-1.39
403.72,-1.42
407.76,-1.44
411.84,-1.46
415.96,-1.49
420.12,-1.51
424.32,-1.53
428.56,-1.55
432.85,-1.57
437.18,-1.59
441.55,-1.60
445.96,-1.62
450.42,-1.64
454.93,-1.66
459.48,-1.68
464.07,-1.69
468.71,-1.70
473.40,-1.71
478.13,-1.73
482.91,-1.74
487.74,-1.75
492.62,-1.76
497.55,-1.78
502.52,-1.79
507.55,-1.79
512.62,-1.80
517.75,-1.80
522.93,-1.81
528.16,-1.81
533.44,-1.82
538.77,-1.82
544.16,-1.82
549.60,-1.81
555.10,-1.81
560.65,-1.81
566.25,-1.81
571.92,-1.80
577.64,-1.80
583.41,-1.79
589.25,-1.78
595.14,-1.77
601.09,-1.76
607.10,-1.76
613.17,-1.74
619.30,-1.73
625.50,-1.72
631.75,-1.71
638.07,-1.69
644.45,-1.67
650.89,-1.66
657.40,-1.64
663.98,-1.62
670.62,-1.60
677.32,-1.58
684.10,-1.55
690.94,-1.53
697.85,-1.51
704.83,-1.48
711.87,-1.45
718.99,-1.43
726.18,-1.41
733.44,-1.38
740.78,-1.35
748.19,-1.32
755.67,-1.29
763.23,-1.26
770.86,-1.23
778.57,-1.20
786.35,-1.17
794.22,-1.13
802.16,-1.10
810.18,-1.07
818.28,-1.03
826.46,-0.99
834.73,-0.96
843.08,-0.93
851.51,-0.89
860.02,-0.85
868.62,-0.81
877.31,-0.76
886.08,-0.71
894.94,-0.67
903.89,-0.62
912.93,-0.57
922.06,-0.52
931.28,-0.47
940.59,-0.41
950.00,-0.35
959.50,-0.28
969.09,-0.21
978.78,-0.14
988.57,-0.08
998.46,-0.01
1008.44,0.07
1018.53,0.15
1028.71,0.23
1039.00,0.31
1049.39,0.40
1059.88,0.49
1070.48,0.57
1081.19,0.66
1092.00,0.75
1102.92,0.84
1113.95,0.94
1125.09,1.03
1136.34,1.12
1147.70,1.21
1159.18,1.30
1170.77,1.38
1182.48,1.47
1194.30,1.55
1206.25,1.63
1218.31,1.71
1230.49,1.79
1242.80,1.87
1255.22,1.94
1267.78,2.02
1280.45,2.09
1293.26,2.16
1306.19,2.23
1319.25,2.29
1332.45,2.36
1345.77,2.42
1359.23,2.48
1372.82,2.54
1386.55,2.59
1400.41,2.65
1414.42,2.70
1428.56,2.75
1442.85,2.81
1457.28,2.86
1471.85,2.91
1486.57,2.95
1501.43,3.00
1516.45,3.05
1531.61,3.09
1546.93,3.13
1562.40,3.18
1578.02,3.22
1593.80,3.27
1609.74,3.31
1625.84,3.35
1642.10,3.38
1658.52,3.42
1675.10,3.46
1691.85,3.49
1708.77,3.52
1725.86,3.55
1743.12,3.58
1760.55,3.61
1778.15,3.64
1795.94,3.67
1813.90,3.69
1832.03,3.71
1850.36,3.73
1868.86,3.75
1887.55,3.77
1906.42,3.79
1925.49,3.81
1944.74,3.82
1964.19,3.83
1983.83,3.84
2003.67,3.85
2023.71,3.86
2043.94,3.88
2064.38,3.89
2085.03,3.91
2105.88,3.92
2126.94,3.94
2148.20,3.96
2169.69,3.98
2191.38,3.99
2213.30,4.01
2235.43,4.02
2257.78,4.04
2280.36,4.05
2303.17,4.07
2326.20,4.09
2349.46,4.11
2372.95,4.14
2396.68,4.17
2420.65,4.21
2444.86,4.25
2469.31,4.29
2494.00,4.34
2518.94,4.40
2544.13,4.46
2569.57,4.53
2595.27,4.60
2621.22,4.67
2647.43,4.74
2673.90,4.81
2700.64,4.89
2727.65,4.96
2754.93,5.03
2782.48,5.10
2810.30,5.16
2838.40,5.23
2866.79,5.30
2895.46,5.37
2924.41,5.44
2953.65,5.51
2983.19,5.58
3013.02,5.66
3043.15,5.75
3073.58,5.83
3104.32,5.90
3135.36,5.97
3166.72,6.03
3198.38,6.09
3230.37,6.13
3262.67,6.16
3295.30,6.18
3328.25,6.18
3361.53,6.16
3395.15,6.12
3429.10,6.05
3463.39,5.96
3498.03,5.83
3533.01,5.65
3568.34,5.45
3604.02,5.21
3640.06,4.95
3676.46,4.69
3713.22,4.45
3750.36,4.22
3787.86,4.06
3825.74,3.91
3864.00,3.82
3902.64,3.77
3941.66,3.74
3981.08,3.78
4020.89,3.79
4061.10,3.74
4101.71,3.76
4142.73,3.78
4184.15,3.79
4226.00,3.80
4268.26,3.80
4310.94,3.80
4354.05,3.80
4397.59,3.79
4441.56,3.78
4485.98,3.76
4530.84,3.73
4576.15,3.70
4621.91,3.67
4668.13,3.62
4714.81,3.57
4761.96,3.51
4809.58,3.44
4857.67,3.37
4906.25,3.28
4955.31,3.19
5004.87,3.09
5054.91,2.98
5105.46,2.85
5156.52,2.71
5208.08,2.56
5260.16,2.38
5312.77,2.20
5365.89,2.00
5419.55,1.80
5473.75,1.58
5528.49,1.35
5583.77,1.12
5639.61,0.89
5696.00,0.66
5752.96,0.43
5810.49,0.21
5868.60,-0.00
5927.28,-0.24
5986.56,-0.51
6046.42,-0.64
6106.89,-0.76
6167.96,-0.92
6229.64,-1.06
6291.93,-1.18
6354.85,-1.28
6418.40,-1.36
6482.58,-1.41
6547.41,-1.44
6612.88,-1.45
6679.01,-1.44
6745.80,-1.40
6813.26,-1.33
6881.39,-1.20
6950.21,-1.03
7019.71,-0.84
7089.91,-0.62
7160.81,-0.35
7232.41,-0.05
7304.74,0.29
7377.79,0.73
7451.56,1.25
7526.08,1.86
7601.34,2.55
7677.35,3.22
7754.13,3.87
7831.67,4.40
7909.98,4.83
7989.08,5.11
8068.98,5.10
8149.67,4.91
8231.16,4.51
8313.47,3.91
8396.61,3.22
8480.57,2.44
8565.38,1.65
8651.03,0.85
8737.54,0.07
8824.92,-0.65
8913.17,-1.32
9002.30,-1.96
9092.32,-2.48
9183.25,-2.94
9275.08,-3.35
9367.83,-3.67
9461.51,-3.90
9556.12,-4.07
9651.68,-4.17
9748.20,-4.22
9845.68,-4.27
9944.14,-4.35
10043.58,-4.45
10144.02,-4.54
10245.46,-4.58
10347.91,-4.60
10451.39,-4.59
10555.91,-4.44
10661.46,-4.19
10768.08,-3.84
10875.76,-3.39
10984.52,-2.99
11094.36,-2.65
11205.31,-2.41
11317.36,-2.34
11430.53,-2.34
11544.84,-2.51
11660.29,-2.78
11776.89,-3.11
11894.66,-3.55
12013.60,-4.01
12133.74,-4.46
12255.08,-4.90
12377.63,-5.34
12501.41,-5.74
12626.42,-6.11
12752.68,-6.41
12880.21,-6.65
13009.01,-6.86
13139.10,-7.07
13270.49,-7.14
13403.20,-7.19
13537.23,-7.20
13672.60,-7.15
13809.33,-7.04
13947.42,-6.85
14086.90,-6.58
14227.77,-6.26
14370.04,-5.84
14513.74,-5.31
14658.88,-4.60
14805.47,-3.79
14953.52,-2.82
15103.06,-1.72
15254.09,-0.56
15406.63,0.26
15560.70,0.56
15716.30,0.03
15873.47,-1.31
16032.20,-2.89
16192.52,-4.50
16354.45,-5.88
16517.99,-7.09
16683.17,-8.01
16850.01,-8.83
17018.51,-9.59
17188.69,-10.33
17360.58,-10.95
17534.18,-11.41
17709.53,-11.47
17886.62,-11.10
18065.49,-10.80
18246.14,-10.85
18428.60,-11.15
18612.89,-11.36
18799.02,-11.37
18987.01,-10.98
19176.88,-10.63
19368.65,-10.87
19562.33,-11.86
19757.96,-13.60
19955.54,-15.35
