frequency,raw
20.00,5.10
20.20,5.12
20.40,5.13
20.61,5.14
20.81,5.15
21.02,5.16
21.23,5.16
21.44,5.17
21.66,5.19
21.87,5.20
22.09,5.22
22.31,5.24
22.54,5.25
22.76,5.27
22.99,5.29
23.22,5.30
23.45,5.30
23.69,5.31
23.92,5.32
24.16,5.33
24.40,5.34
24.65,5.35
24.89,5.36
25.14,5.37
25.39,5.38
25.65,5.39
25.91,5.39
26.16,5.40
26.43,5.40
26.69,5.41
26.96,5.42
27.23,5.43
27.50,5.45
27.77,5.46
28.05,5.47
28.33,5.48
28.62,5.49
28.90,5.50
29.19,5.51
29.48,5.52
29.78,5.53
30.08,5.54
30.38,5.55
30.68,5.55
30.99,5.55
31.30,5.56
31.61,5.56
31.93,5.57
32.24,5.57
32.57,5.57
32.89,5.57
33.22,5.58
33.55,5.58
33.89,5.58
34.23,5.59
34.57,5.59
34.92,5.60
35.27,5.60
35.62,5.60
35.97,5.60
36.33,5.61
36.70,5.61
37.06,5.62
37.43,5.63
37.81,5.63
38.19,5.64
38.57,5.64
38.95,5.64
39.34,5.64
39.74,5.64
40.14,5.64
40.54,5.64
40.94,5.64
41.35,5.64
41.76,5.64
42.18,5.65
42.60,5.65
43.03,5.65
43.46,5.65
43.90,5.64
44.33,5.64
44.78,5.64
45.23,5.64
45.68,5.64
46.13,5.65
46.60,5.65
47.06,5.66
47.53,5.65
48.01,5.64
48.49,5.64
48.97,5.64
49.46,5.65
49.96,5.65
50.46,5.65
50.96,5.64
51.47,5.63
51.99,5.62
52.51,5.62
53.03,5.61
53.56,5.60
54.10,5.59
54.64,5.59
55.18,5.59
55.74,5.60
56.29,5.60
56.86,5.61
57.42,5.60
58.00,5.58
58.58,5.59
59.16,5.60
59.76,5.60
60.35,5.60
60.96,5.60
61.57,5.60
62.18,5.60
62.80,5.59
63.43,5.58
64.07,5.57
64.71,5.57
65.35,5.56
66.01,5.56
66.67,5.55
67.33,5.55
68.01,5.54
68.69,5.54
69.37,5.53
70.07,5.52
70.77,5.52
71.48,5.52
72.19,5.51
72.91,5.50
73.64,5.50
74.38,5.50
75.12,5.48
75.87,5.47
76.63,5.46
77.40,5.44
78.17,5.44
78.95,5.44
79.74,5.43
80.54,5.42
81.35,5.42
82.16,5.41
82.98,5.40
83.81,5.39
84.65,5.38
85.50,5.37
86.35,5.36
87.22,5.35
88.09,5.34
88.97,5.33
89.86,5.32
90.76,5.31
91.66,5.30
92.58,5.29
93.51,5.28
94.44,5.27
95.39,5.26
96.34,5.25
97.30,5.23
98.28,5.22
99.26,5.21
100.25,5.20
101.25,5.18
102.27,5.17
103.29,5.16
104.32,5.14
105.37,5.13
106.42,5.11
107.48,5.10
108.56,5.08
109.64,5.07
110.74,5.05
111.85,5.03
112.97,5.02
114.10,5.00
115.24,4.99
116.39,4.97
117.55,4.95
118.73,4.94
119.92,4.92
121.12,4.90
122.33,4.89
123.55,4.87
124.79,4.85
126.03,4.83
127.29,4.81
128.57,4.79
129.85,4.77
131.15,4.75
132.46,4.73
133.79,4.71
135.12,4.68
136.48,4.67
137.84,4.66
139.22,4.63
140.61,4.61
142.02,4.59
143.44,4.57
144.87,4.54
146.32,4.52
147.78,4.49
149.26,4.47
150.75,4.44
152.26,4.42
153.78,4.39
155.32,4.37
156.88,4.34
158.44,4.32
160.03,4.30
161.63,4.29
163.24,4.27
164.88,4.25
166.53,4.24
168.19,4.23
169.87,4.21
171.57,4.19
173.29,4.17
175.02,4.15
176.77,4.13
178.54,4.11
180.32,4.08
182.13,4.06
183.95,4.03
185.79,4.00
187.65,3.98
189.52,3.95
191.42,3.92
193.33,3.89
195.27,3.87
197.22,3.84
199.19,3.81
201.18,3.78
203.19,3.75
205.23,3.72
207.28,3.69
209.35,3.66
211.44,3.63
213.56,3.60
215.69,3.57
217.85,3.54
220.03,3.51
222.23,3.48
224.45,3.44
226.70,3.41
228.96,3.38
231.25,3.35
233.57,3.31
235.90,3.28
238.26,3.25
240.64,3.22
243.05,3.19
245.48,3.15
247.93,3.11
250.41,3.08
252.92,3.05
255.45,3.01
258.00,2.98
260.58,2.94
263.19,2.91
265.82,2.87
268.48,2.84
271.16,2.81
273.87,2.77
276.61,2.74
279.38,2.71
282.17,2.67
284.99,2.64
287.84,2.60
290.72,2.57
293.63,2.53
296.57,2.49
299.53,2.46
302.53,2.42
305.55,2.38
308.61,2.35
311.69,2.31
314.81,2.28
317.96,2.24
321.14,2.20
324.35,2.17
327.59,2.13
330.87,2.09
334.18,2.06
337.52,2.02
340.90,1.99
344.30,1.95
347.75,1.91
351.23,1.88
354.74,1.84
358.28,1.81
361.87,1.77
365.49,1.74
369.14,1.70
372.83,1.67
376.56,1.63
380.33,1.59
384.13,1.55
387.97,1.52
391.85,1.48
395.77,1.45
399.73,1.41
403.72,1.38
407.76,1.34
411.84,1.30
415.96,1.27
420.12,1.23
424.32,1.20
428.56,1.16
432.85,1.13
437.18,1.09
441.55,1.06
445.96,1.02
450.42,0.99
454.93,0.95
459.48,0.92
464.07,0.89
468.71,0.85
473.40,0.82
478.13,0.79
482.91,0.75
487.74,0.72
492.62,0.69
497.55,0.66
502.52,0.63
507.55,0.60
512.62,0.57
517.75,0.54
522.93,0.51
528.16,0.48
533.44,0.43
538.77,0.38
544.16,0.32
549.60,0.27
555.10,0.23
560.65,0.19
566.25,0.16
571.92,0.13
577.64,0.10
583.41,0.07
589.25,0.03
595.14,0.00
601.09,-0.02
607.10,-0.05
613.17,-0.08
619.30,-0.10
625.50,-0.12
631.75,-0.14
638.07,-0.17
644.45,-0.19
650.89,-0.21
657.40,-0.23
663.98,-0.25
670.62,-0.27
677.32,-0.30
684.10,-0.32
690.94,-0.33
697.85,-0.35
704.83,-0.37
711.87,-0.39
718.99,-0.40
726.18,-0.42
733.44,-0.43
740.78,-0.45
748.19,-0.46
755.67,-0.47
763.23,-0.48
770.86,-0.49
778.57,-0.50
786.35,-0.51
794.22,-0.51
802.16,-0.51
810.18,-0.51
818.28,-0.51
826.46,-0.51
834.73,-0.51
843.08,-0.50
851.51,-0.49
860.02,-0.48
868.62,-0.47
877.31,-0.46
886.08,-0.44
894.94,-0.42
903.89,-0.40
912.93,-0.37
922.06,-0.34
931.28,-0.31
940.59,-0.28
950.00,-0.24
959.50,-0.20
969.09,-0.16
978.78,-0.11
988.57,-0.06
998.46,-0.01
1008.44,0.05
1018.53,0.11
1028.71,0.17
1039.00,0.23
1049.39,0.30
1059.88,0.37
1070.48,0.45
1081.19,0.52
1092.00,0.60
1102.92,0.68
1113.95,0.76
1125.09,0.84
1136.34,0.92
1147.70,1.01
1159.18,1.09
1170.77,1.18
1182.48,1.26
1194.30,1.34
1206.25,1.43
1218.31,1.51
1230.49,1.60
1242.80,1.68
1255.22,1.76
1267.78,1.84
1280.45,1.92
1293.26,2.00
1306.19,2.07
1319.25,2.15
1332.45,2.22
1345.77,2.29
1359.23,2.36
1372.82,2.43
1386.55,2.49
1400.41,2.55
1414.42,2.61
1428.56,2.67
1442.85,2.73
1457.28,2.80
1471.85,2.87
1486.57,2.96
1501.43,3.05
1516.45,3.16
1531.61,3.25
1546.93,3.34
1562.40,3.42
1578.02,3.50
1593.80,3.57
1609.74,3.64
1625.84,3.71
1642.10,3.78
1658.52,3.84
1675.10,3.90
1691.85,3.95
1708.77,4.02
1725.86,4.09
1743.12,4.18
1760.55,4.28
1778.15,4.38
1795.94,4.48
1813.90,4.56
1832.03,4.64
1850.36,4.71
1868.86,4.78
1887.55,4.84
1906.42,4.89
1925.49,4.94
1944.74,4.99
1964.19,5.03
1983.83,5.08
2003.67,5.14
2023.71,5.20
2043.94,5.27
2064.38,5.33
2085.03,5.38
2105.88,5.42
2126.94,5.44
2148.20,5.44
2169.69,5.44
2191.38,5.44
2213.30,5.45
2235.43,5.47
2257.78,5.52
2280.36,5.60
2303.17,5.70
2326.20,5.82
2349.46,5.98
2372.95,6.17
2396.68,6.36
2420.65,6.55
2444.86,6.69
2469.31,6.81
2494.00,6.88
2518.94,6.94
2544.13,6.98
2569.57,7.03
2595.27,7.09
2621.22,7.14
2647.43,7.19
2673.90,7.21
2700.64,7.22
2727.65,7.22
2754.93,7.21
2782.48,7.19
2810.30,7.17
2838.40,7.15
2866.79,7.14
2895.46,7.12
2924.41,7.11
2953.65,7.10
2983.19,7.09
3013.02,7.08
3043.15,7.07
3073.58,7.06
3104.32,7.06
3135.36,7.07
3166.72,7.08
3198.38,7.10
3230.37,7.12
3262.67,7.15
3295.30,7.17
3328.25,7.20
3361.53,7.22
3395.15,7.24
3429.10,7.26
3463.39,7.28
3498.03,7.30
3533.01,7.31
3568.34,7.26
3604.02,7.14
3640.06,6.84
3676.46,6.96
3713.22,7.24
3750.36,7.49
3787.86,7.61
3825.74,7.73
3864.00,7.81
3902.64,7.87
3941.66,7.93
3981.08,7.97
4020.89,8.01
4061.10,8.04
4101.71,8.06
4142.73,8.07
4184.15,8.08
4226.00,8.07
4268.26,8.06
4310.94,8.04
4354.05,8.00
4397.59,7.95
4441.56,7.90
4485.98,7.83
4530.84,7.75
4576.15,7.65
4621.91,7.55
4668.13,7.43
4714.81,7.30
4761.96,7.16
4809.58,7.01
4857.67,6.85
4906.25,6.67
4955.31,6.49
5004.87,6.30
5054.91,6.10
5105.46,5.90
5156.52,5.70
5208.08,5.49
5260.16,5.28
5312.77,5.07
5365.89,4.86
5419.55,4.65
5473.75,4.44
5528.49,4.23
5583.77,4.03
5639.61,3.84
5696.00,3.65
5752.96,3.47
5810.49,3.29
5868.60,3.13
5927.28,2.99
5986.56,2.85
6046.42,2.72
6106.89,2.61
6167.96,2.52
6229.64,2.45
6291.93,2.39
6354.85,2.35
6418.40,2.33
6482.58,2.33
6547.41,2.36
6612.88,2.40
6679.01,2.48
6745.80,2.58
6813.26,2.70
6881.39,2.84
6950.21,3.00
7019.71,3.18
7089.91,3.37
7160.81,3.60
7232.41,3.86
7304.74,4.15
7377.79,4.50
7451.56,4.89
7526.08,5.32
7601.34,5.80
7677.35,6.29
7754.13,6.80
7831.67,7.22
7909.98,7.55
7989.08,7.72
8068.98,7.55
8149.67,7.21
8231.16,6.63
8313.47,5.88
8396.61,5.07
8480.57,4.21
8565.38,3.33
8651.03,2.46
8737.54,1.60
8824.92,0.77
8913.17,-0.01
9002.30,-0.77
9092.32,-1.46
9183.25,-2.10
9275.08,-2.71
9367.83,-3.27
9461.51,-3.79
9556.12,-4.26
9651.68,-4.70
9748.20,-5.11
9845.68,-5.46
9944.14,-5.78
10043.58,-6.07
10144.02,-6.32
10245.46,-6.53
10347.91,-6.71
10451.39,-6.87
10555.91,-6.98
10661.46,-7.06
10768.08,-7.12
10875.76,-7.12
10984.52,-7.09
11094.36,-7.03
11205.31,-6.92
11317.36,-6.76
11430.53,-6.58
11544.84,-6.34
11660.29,-6.07
11776.89,-5.75
11894.66,-5.34
12013.60,-4.91
12133.74,-4.40
12255.08,-3.78
12377.63,-3.11
12501.41,-2.35
12626.42,-1.47
12752.68,-0.51
12880.21,0.42
13009.01,1.32
13139.10,2.23
13270.49,2.43
13403.20,2.31
13537.23,1.48
13672.60,0.54
13809.33,-0.50
13947.42,-1.44
14086.90,-2.23
14227.77,-2.93
14370.04,-3.49
14513.74,-3.89
14658.88,-4.08
14805.47,-4.22
14953.52,-4.27
15103.06,-4.15
15254.09,-3.95
15406.63,-3.43
15560.70,-2.80
15716.30,-1.99
15873.47,-1.41
16032.20,-1.19
16192.52,-2.14
16354.45,-3.73
16517.99,-5.69
16683.17,-7.65
16850.01,-9.44
17018.51,-11.10
17188.69,-12.56
17360.58,-13.88
17534.18,-15.08
17709.53,-16.15
17886.62,-17.11
18065.49,-18.01
18246.14,-18.86
18428.60,-19.73
18612.89,-20.54
18799.02,-21.30
18987.01,-22.03
19176.88,-22.85
19368.65,-23.80
19562.33,-24.94
19757.96,-26.37
19955.54,-27.79
