frequency,raw
20.00,7.00
20.20,7.03
20.40,7.06
20.61,7.09
20.81,7.11
21.02,7.14
21.23,7.16
21.44,7.19
21.66,7.21
21.87,7.24
22.09,7.26
22.31,7.28
22.54,7.30
22.76,7.32
22.99,7.34
23.22,7.36
23.45,7.38
23.69,7.39
23.92,7.40
24.16,7.41
24.40,7.42
24.65,7.43
24.89,7.45
25.14,7.46
25.39,7.48
25.65,7.50
25.91,7.52
26.16,7.54
26.43,7.55
26.69,7.56
26.96,7.57
27.23,7.57
27.50,7.57
27.77,7.57
28.05,7.58
28.33,7.59
28.62,7.61
28.90,7.62
29.19,7.63
29.48,7.64
29.78,7.64
30.08,7.64
30.38,7.64
30.68,7.64
30.99,7.64
31.30,7.65
31.61,7.65
31.93,7.65
32.24,7.65
32.57,7.65
32.89,7.65
33.22,7.64
33.55,7.64
33.89,7.64
34.23,7.64
34.57,7.63
34.92,7.63
35.27,7.63
35.62,7.62
35.97,7.62
36.33,7.61
36.70,7.60
37.06,7.59
37.43,7.58
37.81,7.58
38.19,7.57
38.57,7.56
38.95,7.55
39.34,7.55
39.74,7.54
40.14,7.52
40.54,7.50
40.94,7.48
41.35,7.47
41.76,7.45
42.18,7.45
42.60,7.44
43.03,7.43
43.46,7.41
43.90,7.39
44.33,7.37
44.78,7.36
45.23,7.34
45.68,7.32
46.13,7.30
46.60,7.27
47.06,7.25
47.53,7.23
48.01,7.21
48.49,7.19
48.97,7.16
49.46,7.13
49.96,7.11
50.46,7.08
50.96,7.06
51.47,7.03
51.99,7.00
52.51,6.97
53.03,6.95
53.56,6.92
54.10,6.89
54.64,6.86
55.18,6.83
55.74,6.80
56.29,6.77
56.86,6.74
57.42,6.70
58.00,6.66
58.58,6.64
59.16,6.61
59.76,6.58
60.35,6.54
60.96,6.50
61.57,6.46
62.18,6.43
62.80,6.39
63.43,6.35
64.07,6.31
64.71,6.27
65.35,6.23
66.01,6.19
66.67,6.15
67.33,6.11
68.01,6.07
68.69,6.03
69.37,5.98
70.07,5.94
70.77,5.89
71.48,5.85
72.19,5.81
72.91,5.76
73.64,5.71
74.38,5.67
75.12,5.62
75.87,5.57
76.63,5.53
77.40,5.48
78.17,5.43
78.95,5.38
79.74,5.33
80.54,5.28
81.35,5.23
82.16,5.18
82.98,5.13
83.81,5.09
84.65,5.03
85.50,4.98
86.35,4.93
87.22,4.88
88.09,4.83
88.97,4.77
89.86,4.72
90.76,4.67
91.66,4.62
92.58,4.57
93.51,4.51
94.44,4.46
95.39,4.40
96.34,4.35
97.30,4.30
98.28,4.25
99.26,4.19
100.25,4.14
101.25,4.08
102.27,4.03
103.29,3.97
104.32,3.92
105.37,3.87
106.42,3.82
107.48,3.76
108.56,3.71
109.64,3.65
110.74,3.60
111.85,3.55
112.97,3.49
114.10,3.44
115.24,3.38
116.39,3.33
117.55,3.28
118.73,3.22
119.92,3.15
121.12,3.11
122.33,3.08
123.55,3.02
124.79,2.97
126.03,2.92
127.29,2.86
128.57,2.81
129.85,2.77
131.15,2.72
132.46,2.67
133.79,2.62
135.12,2.58
136.48,2.54
137.84,2.50
139.22,2.46
140.61,2.43
142.02,2.40
143.44,2.37
144.87,2.34
146.32,2.32
147.78,2.29
149.26,2.26
150.75,2.23
152.26,2.21
153.78,2.17
155.32,2.14
156.88,2.12
158.44,2.09
160.03,2.05
161.63,2.05
163.24,2.03
164.88,2.00
166.53,1.97
168.19,1.95
169.87,1.93
171.57,1.91
173.29,1.88
175.02,1.86
176.77,1.84
178.54,1.83
180.32,1.82
182.13,1.79
183.95,1.77
185.79,1.76
187.65,1.74
189.52,1.73
191.42,1.72
193.33,1.71
195.27,1.70
197.22,1.69
199.19,1.68
201.18,1.67
203.19,1.66
205.23,1.65
207.28,1.63
209.35,1.62
211.44,1.61
213.56,1.60
215.69,1.59
217.85,1.57
220.03,1.56
222.23,1.55
224.45,1.54
226.70,1.53
228.96,1.51
231.25,1.50
233.57,1.49
235.90,1.48
238.26,1.48
240.64,1.47
243.05,1.45
245.48,1.44
247.93,1.43
250.41,1.42
252.92,1.41
255.45,1.40
258.00,1.39
260.58,1.38
263.19,1.38
265.82,1.37
268.48,1.36
271.16,1.35
273.87,1.34
276.61,1.33
279.38,1.32
282.17,1.31
284.99,1.31
287.84,1.30
290.72,1.29
293.63,1.28
296.57,1.27
299.53,1.27
302.53,1.26
305.55,1.24
308.61,1.23
311.69,1.22
314.81,1.21
317.96,1.20
321.14,1.19
324.35,1.19
327.59,1.18
330.87,1.16
334.18,1.15
337.52,1.15
340.90,1.14
344.30,1.13
347.75,1.12
351.23,1.11
354.74,1.10
358.28,1.09
361.87,1.07
365.49,1.06
369.14,1.05
372.83,1.04
376.56,1.02
380.33,1.01
384.13,1.00
387.97,0.98
391.85,0.97
395.77,0.95
399.73,0.94
403.72,0.92
407.76,0.90
411.84,0.89
415.96,0.87
420.12,0.85
424.32,0.83
428.56,0.81
432.85,0.79
437.18,0.77
441.55,0.76
445.96,0.74
450.42,0.72
454.93,0.70
459.48,0.68
464.07,0.66
468.71,0.63
473.40,0.61
478.13,0.59
482.91,0.57
487.74,0.54
492.62,0.52
497.55,0.50
502.52,0.48
507.55,0.46
512.62,0.43
517.75,0.41
522.93,0.38
528.16,0.36
533.44,0.34
538.77,0.31
544.16,0.29
549.60,0.27
555.10,0.24
560.65,0.22
566.25,0.19
571.92,0.17
577.64,0.15
583.41,0.13
589.25,0.11
595.14,0.09
601.09,0.07
607.10,0.05
613.17,0.03
619.30,0.01
625.50,-0.02
631.75,-0.04
638.07,-0.06
644.45,-0.09
650.89,-0.11
657.40,-0.14
663.98,-0.16
670.62,-0.19
677.32,-0.21
684.10,-0.24
690.94,-0.26
697.85,-0.28
704.83,-0.30
711.87,-0.33
718.99,-0.35
726.18,-0.36
733.44,-0.38
740.78,-0.40
748.19,-0.42
755.67,-0.43
763.23,-0.45
770.86,-0.46
778.57,-0.48
786.35,-0.49
794.22,-0.50
802.16,-0.51
810.18,-0.51
818.28,-0.52
826.46,-0.52
834.73,-0.52
843.08,-0.52
851.51,-0.51
860.02,-0.50
868.62,-0.49
877.31,-0.48
886.08,-0.46
894.94,-0.44
903.89,-0.42
912.93,-0.39
922.06,-0.36
931.28,-0.33
940.59,-0.29
950.00,-0.26
959.50,-0.21
969.09,-0.17
978.78,-0.12
988.57,-0.06
998.46,-0.01
1008.44,0.05
1018.53,0.11
1028.71,0.17
1039.00,0.24
1049.39,0.31
1059.88,0.38
1070.48,0.46
1081.19,0.54
1092.00,0.62
1102.92,0.70
1113.95,0.78
1125.09,0.86
1136.34,0.94
1147.70,1.02
1159.18,1.10
1170.77,1.18
1182.48,1.26
1194.30,1.34
1206.25,1.41
1218.31,1.48
1230.49,1.55
1242.80,1.63
1255.22,1.69
1267.78,1.76
1280.45,1.82
1293.26,1.88
1306.19,1.93
1319.25,1.99
1332.45,2.04
1345.77,2.09
1359.23,2.14
1372.82,2.19
1386.55,2.23
1400.41,2.27
1414.42,2.31
1428.56,2.36
1442.85,2.40
1457.28,2.43
1471.85,2.47
1486.57,2.51
1501.43,2.54
1516.45,2.58
1531.61,2.61
1546.93,2.65
1562.40,2.69
1578.02,2.72
1593.80,2.76
1609.74,2.80
1625.84,2.84
1642.10,2.87
1658.52,2.92
1675.10,2.96
1691.85,3.00
1708.77,3.05
1725.86,3.09
1743.12,3.14
1760.55,3.19
1778.15,3.25
1795.94,3.30
1813.90,3.36
1832.03,3.42
1850.36,3.48
1868.86,3.55
1887.55,3.61
1906.42,3.68
1925.49,3.76
1944.74,3.83
1964.19,3.91
1983.83,3.99
2003.67,4.07
2023.71,4.16
2043.94,4.25
2064.38,4.34
2085.03,4.44
2105.88,4.54
2126.94,4.64
2148.20,4.74
2169.69,4.85
2191.38,4.96
2213.30,5.08
2235.43,5.20
2257.78,5.32
2280.36,5.45
2303.17,5.57
2326.20,5.70
2349.46,5.83
2372.95,5.97
2396.68,6.11
2420.65,6.24
2444.86,6.38
2469.31,6.52
2494.00,6.66
2518.94,6.80
2544.13,6.94
2569.57,7.08
2595.27,7.21
2621.22,7.35
2647.43,7.47
2673.90,7.60
2700.64,7.72
2727.65,7.83
2754.93,7.94
2782.48,8.04
2810.30,8.13
2838.40,8.21
2866.79,8.28
2895.46,8.35
2924.41,8.39
2953.65,8.44
2983.19,8.46
3013.02,8.48
3043.15,8.48
3073.58,8.47
3104.32,8.45
3135.36,8.43
3166.72,8.39
3198.38,8.34
3230.37,8.29
3262.67,8.22
3295.30,8.15
3328.25,8.07
3361.53,7.98
3395.15,7.89
3429.10,7.79
3463.39,7.70
3498.03,7.60
3533.01,7.50
3568.34,7.40
3604.02,7.31
3640.06,7.22
3676.46,7.13
3713.22,7.05
3750.36,6.97
3787.86,6.90
3825.74,6.83
3864.00,6.76
3902.64,6.70
3941.66,6.64
3981.08,6.58
4020.89,6.53
4061.10,6.48
4101.71,6.43
4142.73,6.39
4184.15,6.35
4226.00,6.32
4268.26,6.29
4310.94,6.27
4354.05,6.25
4397.59,6.24
4441.56,6.23
4485.98,6.23
4530.84,6.23
4576.15,6.24
4621.91,6.24
4668.13,6.26
4714.81,6.27
4761.96,6.29
4809.58,6.31
4857.67,6.33
4906.25,6.34
4955.31,6.36
5004.87,6.37
5054.91,6.37
5105.46,6.37
5156.52,6.35
5208.08,6.32
5260.16,6.27
5312.77,6.21
5365.89,6.13
5419.55,6.03
5473.75,5.91
5528.49,5.77
5583.77,5.60
5639.61,5.42
5696.00,5.22
5752.96,5.01
5810.49,4.79
5868.60,4.56
5927.28,4.32
5986.56,4.08
6046.42,3.83
6106.89,3.60
6167.96,3.36
6229.64,3.14
6291.93,2.92
6354.85,2.72
6418.40,2.53
6482.58,2.36
6547.41,2.21
6612.88,2.08
6679.01,1.97
6745.80,1.89
6813.26,1.83
6881.39,1.81
6950.21,1.82
7019.71,1.87
7089.91,1.94
7160.81,2.08
7232.41,2.25
7304.74,2.44
7377.79,2.69
7451.56,2.98
7526.08,3.32
7601.34,3.70
7677.35,4.08
7754.13,4.46
7831.67,4.78
7909.98,5.02
7989.08,5.16
8068.98,5.07
8149.67,4.85
8231.16,4.47
8313.47,3.94
8396.61,3.36
8480.57,2.72
8565.38,2.05
8651.03,1.39
8737.54,0.73
8824.92,0.10
8913.17,-0.49
9002.30,-1.06
9092.32,-1.55
9183.25,-2.00
9275.08,-2.42
9367.83,-2.78
9461.51,-3.08
9556.12,-3.34
9651.68,-3.54
9748.20,-3.69
9845.68,-3.76
9944.14,-3.78
10043.58,-3.72
10144.02,-3.62
10245.46,-3.43
10347.91,-3.19
10451.39,-2.89
10555.91,-2.52
10661.46,-2.11
10768.08,-1.66
10875.76,-1.18
10984.52,-0.68
11094.36,-0.20
11205.31,0.24
11317.36,0.59
11430.53,0.87
11544.84,1.02
11660.29,1.06
11776.89,1.04
11894.66,0.87
12013.60,0.68
12133.74,0.47
12255.08,0.32
12377.63,0.27
12501.41,0.29
12626.42,0.38
12752.68,0.47
12880.21,0.50
13009.01,0.50
13139.10,0.49
13270.49,0.32
13403.20,0.09
13537.23,-0.29
13672.60,-0.70
13809.33,-1.14
13947.42,-1.60
14086.90,-1.99
14227.77,-2.35
14370.04,-2.63
14513.74,-2.82
14658.88,-2.89
14805.47,-2.91
14953.52,-2.86
15103.06,-2.74
15254.09,-2.58
15406.63,-2.31
15560.70,-2.04
15716.30,-1.80
15873.47,-1.71
16032.20,-1.69
16192.52,-1.77
16354.45,-1.93
16517.99,-2.15
16683.17,-2.46
16850.01,-2.80
17018.51,-3.17
17188.69,-3.66
17360.58,-4.13
17534.18,-4.51
17709.53,-4.63
17886.62,-4.71
18065.49,-4.93
18246.14,-5.41
18428.60,-6.51
18612.89,-7.87
18799.02,-9.41
18987.01,-11.02
19176.88,-12.66
19368.65,-14.43
19562.33,-16.39
19757.96,-18.62
19955.54,-20.84
