frequency,raw
20.00,8.23
20.20,8.26
20.40,8.28
20.61,8.30
20.81,8.32
21.02,8.33
21.23,8.35
21.44,8.37
21.66,8.38
21.87,8.40
22.09,8.42
22.31,8.43
22.54,8.45
22.76,8.46
22.99,8.47
23.22,8.48
23.45,8.50
23.69,8.51
23.92,8.53
24.16,8.54
24.40,8.56
24.65,8.58
24.89,8.59
25.14,8.61
25.39,8.62
25.65,8.63
25.91,8.63
26.16,8.64
26.43,8.65
26.69,8.66
26.96,8.67
27.23,8.68
27.50,8.69
27.77,8.69
28.05,8.70
28.33,8.70
28.62,8.70
28.90,8.70
29.19,8.70
29.48,8.70
29.78,8.71
30.08,8.71
30.38,8.72
30.68,8.72
30.99,8.72
31.30,8.71
31.61,8.71
31.93,8.71
32.24,8.71
32.57,8.71
32.89,8.71
33.22,8.71
33.55,8.70
33.89,8.69
34.23,8.69
34.57,8.68
34.92,8.68
35.27,8.67
35.62,8.67
35.97,8.67
36.33,8.66
36.70,8.65
37.06,8.64
37.43,8.63
37.81,8.62
38.19,8.60
38.57,8.59
38.95,8.58
39.34,8.58
39.74,8.57
40.14,8.55
40.54,8.54
40.94,8.52
41.35,8.51
41.76,8.49
42.18,8.48
42.60,8.46
43.03,8.45
43.46,8.44
43.90,8.42
44.33,8.41
44.78,8.39
45.23,8.37
45.68,8.35
46.13,8.33
46.60,8.31
47.06,8.29
47.53,8.27
48.01,8.26
48.49,8.24
48.97,8.22
49.46,8.20
49.96,8.17
50.46,8.15
50.96,8.12
51.47,8.10
51.99,8.08
52.51,8.06
53.03,8.03
53.56,8.01
54.10,7.98
54.64,7.96
55.18,7.93
55.74,7.90
56.29,7.88
56.86,7.86
57.42,7.83
58.00,7.80
58.58,7.77
59.16,7.74
59.76,7.71
60.35,7.68
60.96,7.65
61.57,7.62
62.18,7.59
62.80,7.56
63.43,7.53
64.07,7.50
64.71,7.47
65.35,7.44
66.01,7.41
66.67,7.37
67.33,7.34
68.01,7.30
68.69,7.27
69.37,7.24
70.07,7.20
70.77,7.17
71.48,7.13
72.19,7.10
72.91,7.06
73.64,7.03
74.38,6.99
75.12,6.96
75.87,6.92
76.63,6.88
77.40,6.85
78.17,6.81
78.95,6.77
79.74,6.73
80.54,6.69
81.35,6.65
82.16,6.61
82.98,6.57
83.81,6.54
84.65,6.50
85.50,6.46
86.35,6.42
87.22,6.37
88.09,6.33
88.97,6.29
89.86,6.25
90.76,6.21
91.66,6.17
92.58,6.13
93.51,6.08
94.44,6.04
95.39,6.00
96.34,5.95
97.30,5.91
98.28,5.87
99.26,5.83
100.25,5.78
101.25,5.74
102.27,5.70
103.29,5.65
104.32,5.61
105.37,5.56
106.42,5.52
107.48,5.47
108.56,5.42
109.64,5.38
110.74,5.33
111.85,5.28
112.97,5.24
114.10,5.19
115.24,5.15
116.39,5.10
117.55,5.05
118.73,5.00
119.92,4.95
121.12,4.90
122.33,4.85
123.55,4.80
124.79,4.75
126.03,4.71
127.29,4.66
128.57,4.62
129.85,4.58
131.15,4.55
132.46,4.52
133.79,4.48
135.12,4.44
136.48,4.40
137.84,4.35
139.22,4.31
140.61,4.26
142.02,4.21
143.44,4.17
144.87,4.12
146.32,4.07
147.78,4.02
149.26,3.98
150.75,3.93
152.26,3.88
153.78,3.84
155.32,3.79
156.88,3.75
158.44,3.71
160.03,3.68
161.63,3.65
163.24,3.62
164.88,3.59
166.53,3.56
168.19,3.52
169.87,3.48
171.57,3.44
173.29,3.40
175.02,3.36
176.77,3.32
178.54,3.28
180.32,3.23
182.13,3.19
183.95,3.15
185.79,3.11
187.65,3.07
189.52,3.03
191.42,3.00
193.33,2.95
195.27,2.91
197.22,2.87
199.19,2.83
201.18,2.78
203.19,2.74
205.23,2.70
207.28,2.65
209.35,2.61
211.44,2.56
213.56,2.52
215.69,2.48
217.85,2.44
220.03,2.40
222.23,2.36
224.45,2.32
226.70,2.28
228.96,2.24
231.25,2.20
233.57,2.16
235.90,2.12
238.26,2.09
240.64,2.05
243.05,2.01
245.48,1.98
247.93,1.96
250.41,1.94
252.92,1.92
255.45,1.91
258.00,1.89
260.58,1.87
263.19,1.85
265.82,1.83
268.48,1.80
271.16,1.77
273.87,1.74
276.61,1.70
279.38,1.68
282.17,1.65
284.99,1.62
287.84,1.59
290.72,1.56
293.63,1.53
296.57,1.50
299.53,1.48
302.53,1.45
305.55,1.42
308.61,1.39
311.69,1.37
314.81,1.35
317.96,1.32
321.14,1.30
324.35,1.28
327.59,1.26
330.87,1.25
334.18,1.23
337.52,1.22
340.90,1.21
344.30,1.21
347.75,1.20
351.23,1.20
354.74,1.20
358.28,1.18
361.87,1.17
365.49,1.15
369.14,1.14
372.83,1.12
376.56,1.10
380.33,1.07
384.13,1.05
387.97,1.04
391.85,1.02
395.77,1.00
399.73,0.98
403.72,0.96
407.76,0.94
411.84,0.93
415.96,0.91
420.12,0.89
424.32,0.88
428.56,0.86
432.85,0.85
437.18,0.83
441.55,0.81
445.96,0.80
450.42,0.78
454.93,0.77
459.48,0.76
464.07,0.74
468.71,0.73
473.40,0.71
478.13,0.70
482.91,0.69
487.74,0.67
492.62,0.66
497.55,0.64
502.52,0.62
507.55,0.61
512.62,0.59
517.75,0.58
522.93,0.56
528.16,0.54
533.44,0.52
538.77,0.50
544.16,0.48
549.60,0.47
555.10,0.45
560.65,0.43
566.25,0.41
571.92,0.39
577.64,0.37
583.41,0.34
589.25,0.32
595.14,0.30
601.09,0.28
607.10,0.25
613.17,0.23
619.30,0.20
625.50,0.18
631.75,0.15
638.07,0.13
644.45,0.10
650.89,0.08
657.40,0.05
663.98,0.02
670.62,-0.01
677.32,-0.03
684.10,-0.06
690.94,-0.09
697.85,-0.11
704.83,-0.14
711.87,-0.16
718.99,-0.19
726.18,-0.21
733.44,-0.24
740.78,-0.26
748.19,-0.29
755.67,-0.31
763.23,-0.32
770.86,-0.34
778.57,-0.36
786.35,-0.38
794.22,-0.39
802.16,-0.41
810.18,-0.42
818.28,-0.43
826.46,-0.43
834.73,-0.44
843.08,-0.44
851.51,-0.44
860.02,-0.44
868.62,-0.43
877.31,-0.42
886.08,-0.41
894.94,-0.40
903.89,-0.38
912.93,-0.36
922.06,-0.33
931.28,-0.30
940.59,-0.27
950.00,-0.24
959.50,-0.20
969.09,-0.16
978.78,-0.11
988.57,-0.06
998.46,-0.01
1008.44,0.05
1018.53,0.10
1028.71,0.16
1039.00,0.23
1049.39,0.30
1059.88,0.37
1070.48,0.44
1081.19,0.52
1092.00,0.59
1102.92,0.67
1113.95,0.75
1125.09,0.83
1136.34,0.91
1147.70,0.99
1159.18,1.07
1170.77,1.15
1182.48,1.24
1194.30,1.31
1206.25,1.39
1218.31,1.47
1230.49,1.55
1242.80,1.62
1255.22,1.70
1267.78,1.77
1280.45,1.84
1293.26,1.91
1306.19,1.97
1319.25,2.04
1332.45,2.10
1345.77,2.16
1359.23,2.22
1372.82,2.28
1386.55,2.34
1400.41,2.40
1414.42,2.46
1428.56,2.51
1442.85,2.57
1457.28,2.62
1471.85,2.67
1486.57,2.73
1501.43,2.79
1516.45,2.84
1531.61,2.89
1546.93,2.95
1562.40,3.00
1578.02,3.06
1593.80,3.11
1609.74,3.17
1625.84,3.23
1642.10,3.28
1658.52,3.34
1675.10,3.40
1691.85,3.46
1708.77,3.53
1725.86,3.59
1743.12,3.66
1760.55,3.72
1778.15,3.79
1795.94,3.87
1813.90,3.94
1832.03,4.01
1850.36,4.09
1868.86,4.17
1887.55,4.25
1906.42,4.33
1925.49,4.42
1944.74,4.51
1964.19,4.59
1983.83,4.68
2003.67,4.78
2023.71,4.87
2043.94,4.96
2064.38,5.05
2085.03,5.15
2105.88,5.25
2126.94,5.35
2148.20,5.46
2169.69,5.56
2191.38,5.67
2213.30,5.78
2235.43,5.89
2257.78,6.01
2280.36,6.12
2303.17,6.24
2326.20,6.36
2349.46,6.48
2372.95,6.60
2396.68,6.73
2420.65,6.85
2444.86,6.98
2469.31,7.10
2494.00,7.23
2518.94,7.36
2544.13,7.48
2569.57,7.61
2595.27,7.73
2621.22,7.84
2647.43,7.95
2673.90,8.05
2700.64,8.13
2727.65,8.20
2754.93,8.26
2782.48,8.31
2810.30,8.35
2838.40,8.38
2866.79,8.40
2895.46,8.42
2924.41,8.43
2953.65,8.44
2983.19,8.45
3013.02,8.46
3043.15,8.46
3073.58,8.47
3104.32,8.48
3135.36,8.48
3166.72,8.47
3198.38,8.47
3230.37,8.46
3262.67,8.45
3295.30,8.44
3328.25,8.42
3361.53,8.41
3395.15,8.39
3429.10,8.37
3463.39,8.35
3498.03,8.33
3533.01,8.32
3568.34,8.30
3604.02,8.29
3640.06,8.28
3676.46,8.27
3713.22,8.26
3750.36,8.26
3787.86,8.25
3825.74,8.25
3864.00,8.24
3902.64,8.24
3941.66,8.24
3981.08,8.24
4020.89,8.24
4061.10,8.24
4101.71,8.25
4142.73,8.25
4184.15,8.25
4226.00,8.25
4268.26,8.25
4310.94,8.24
4354.05,8.23
4397.59,8.21
4441.56,8.19
4485.98,8.16
4530.84,8.13
4576.15,8.10
4621.91,8.07
4668.13,8.04
4714.81,8.00
4761.96,7.97
4809.58,7.94
4857.67,7.91
4906.25,7.88
4955.31,7.86
5004.87,7.84
5054.91,7.83
5105.46,7.83
5156.52,7.83
5208.08,7.85
5260.16,7.87
5312.77,7.91
5365.89,7.96
5419.55,8.01
5473.75,8.07
5528.49,8.14
5583.77,8.20
5639.61,8.26
5696.00,8.31
5752.96,8.32
5810.49,8.31
5868.60,8.27
5927.28,8.19
5986.56,8.09
6046.42,7.95
6106.89,7.78
6167.96,7.59
6229.64,7.39
6291.93,7.18
6354.85,6.97
6418.40,6.77
6482.58,6.58
6547.41,6.42
6612.88,6.27
6679.01,6.15
6745.80,6.06
6813.26,6.00
6881.39,5.96
6950.21,5.96
7019.71,5.99
7089.91,6.06
7160.81,6.17
7232.41,6.31
7304.74,6.48
7377.79,6.69
7451.56,6.92
7526.08,7.18
7601.34,7.46
7677.35,7.73
7754.13,8.00
7831.67,8.22
7909.98,8.39
7989.08,8.48
8068.98,8.41
8149.67,8.25
8231.16,7.95
8313.47,7.52
8396.61,7.01
8480.57,6.39
8565.38,5.68
8651.03,4.90
8737.54,4.01
8824.92,3.20
8913.17,2.67
9002.30,2.24
9092.32,1.63
9183.25,1.10
9275.08,0.60
9367.83,0.10
9461.51,-0.43
9556.12,-0.93
9651.68,-1.39
9748.20,-1.79
9845.68,-2.15
9944.14,-2.47
10043.58,-2.75
10144.02,-3.00
10245.46,-3.20
10347.91,-3.36
10451.39,-3.48
10555.91,-3.54
10661.46,-3.57
10768.08,-3.57
10875.76,-3.52
10984.52,-3.43
11094.36,-3.30
11205.31,-3.13
11317.36,-2.90
11430.53,-2.65
11544.84,-2.37
11660.29,-2.08
11776.89,-1.81
11894.66,-1.46
12013.60,-1.08
12133.74,-0.65
12255.08,-0.23
12377.63,0.15
12501.41,0.47
12626.42,0.70
12752.68,0.91
12880.21,1.00
13009.01,1.03
13139.10,1.06
13270.49,0.94
13403.20,0.79
13537.23,0.59
13672.60,0.38
13809.33,0.18
13947.42,0.01
14086.90,-0.10
14227.77,-0.18
14370.04,-0.18
14513.74,-0.10
14658.88,0.05
14805.47,0.20
14953.52,0.34
15103.06,0.35
15254.09,0.30
15406.63,-0.14
15560.70,-0.73
15716.30,-1.56
15873.47,-2.52
16032.20,-3.51
16192.52,-4.48
16354.45,-5.38
16517.99,-6.21
16683.17,-6.85
16850.01,-7.38
17018.51,-7.81
17188.69,-8.09
17360.58,-8.27
17534.18,-8.36
17709.53,-8.38
17886.62,-8.38
18065.49,-8.45
18246.14,-8.65
18428.60,-9.21
18612.89,-9.21
18799.02,-8.92
18987.01,-8.81
19176.88,-8.23
19368.65,-8.83
19562.33,-10.35
19757.96,-12.24
19955.54,-14.13
