frequency,raw
20.00,18.44
20.20,18.39
20.40,18.34
20.61,18.30
20.81,18.24
21.02,18.19
21.23,18.14
21.44,18.09
21.66,18.04
21.87,17.99
22.09,17.94
22.31,17.90
22.54,17.85
22.76,17.80
22.99,17.75
23.22,17.69
23.45,17.64
23.69,17.58
23.92,17.53
24.16,17.47
24.40,17.41
24.65,17.36
24.89,17.30
25.14,17.25
25.39,17.20
25.65,17.15
25.91,17.09
26.16,17.04
26.43,16.99
26.69,16.93
26.96,16.88
27.23,16.82
27.50,16.76
27.77,16.70
28.05,16.64
28.33,16.58
28.62,16.52
28.90,16.47
29.19,16.42
29.48,16.36
29.78,16.31
30.08,16.25
30.38,16.19
30.68,16.12
30.99,16.06
31.30,15.99
31.61,15.93
31.93,15.87
32.24,15.80
32.57,15.74
32.89,15.68
33.22,15.62
33.55,15.56
33.89,15.50
34.23,15.43
34.57,15.37
34.92,15.30
35.27,15.23
35.62,15.17
35.97,15.10
36.33,15.04
36.70,14.98
37.06,14.91
37.43,14.85
37.81,14.78
38.19,14.71
38.57,14.65
38.95,14.58
39.34,14.51
39.74,14.45
40.14,14.38
40.54,14.31
40.94,14.24
41.35,14.18
41.76,14.11
42.18,14.04
42.60,13.97
43.03,13.91
43.46,13.84
43.90,13.77
44.33,13.69
44.78,13.62
45.23,13.55
45.68,13.48
46.13,13.42
46.60,13.35
47.06,13.28
47.53,13.22
48.01,13.15
48.49,13.08
48.97,13.00
49.46,12.92
49.96,12.85
50.46,12.78
50.96,12.71
51.47,12.65
51.99,12.58
52.51,12.50
53.03,12.43
53.56,12.36
54.10,12.29
54.64,12.21
55.18,12.13
55.74,12.05
56.29,11.98
56.86,11.93
57.42,11.86
58.00,11.79
58.58,11.71
59.16,11.64
59.76,11.56
60.35,11.49
60.96,11.41
61.57,11.34
62.18,11.26
62.80,11.19
63.43,11.12
64.07,11.05
64.71,10.97
65.35,10.89
66.01,10.81
66.67,10.74
67.33,10.67
68.01,10.60
68.69,10.52
69.37,10.45
70.07,10.38
70.77,10.30
71.48,10.22
72.19,10.15
72.91,10.08
73.64,10.00
74.38,9.92
75.12,9.85
75.87,9.77
76.63,9.70
77.40,9.62
78.17,9.55
78.95,9.47
79.74,9.40
80.54,9.32
81.35,9.24
82.16,9.17
82.98,9.09
83.81,9.02
84.65,8.94
85.50,8.87
86.35,8.80
87.22,8.71
88.09,8.64
88.97,8.56
89.86,8.48
90.76,8.41
91.66,8.34
92.58,8.26
93.51,8.18
94.44,8.11
95.39,8.03
96.34,7.96
97.30,7.88
98.28,7.80
99.26,7.73
100.25,7.65
101.25,7.58
102.27,7.50
103.29,7.42
104.32,7.35
105.37,7.27
106.42,7.20
107.48,7.13
108.56,7.05
109.64,6.97
110.74,6.89
111.85,6.82
112.97,6.75
114.10,6.67
115.24,6.59
116.39,6.52
117.55,6.44
118.73,6.36
119.92,6.29
121.12,6.22
122.33,6.15
123.55,6.06
124.79,5.99
126.03,5.92
127.29,5.84
128.57,5.77
129.85,5.69
131.15,5.61
132.46,5.54
133.79,5.46
135.12,5.40
136.48,5.32
137.84,5.24
139.22,5.16
140.61,5.09
142.02,5.02
143.44,4.95
144.87,4.88
146.32,4.79
147.78,4.71
149.26,4.66
150.75,4.59
152.26,4.50
153.78,4.44
155.32,4.37
156.88,4.30
158.44,4.22
160.03,4.15
161.63,4.07
163.24,3.99
164.88,3.92
166.53,3.86
168.19,3.79
169.87,3.70
171.57,3.64
173.29,3.57
175.02,3.48
176.77,3.43
178.54,3.37
180.32,3.29
182.13,3.21
183.95,3.14
185.79,3.07
187.65,2.99
189.52,2.93
191.42,2.86
193.33,2.79
195.27,2.72
197.22,2.64
199.19,2.58
201.18,2.51
203.19,2.44
205.23,2.38
207.28,2.32
209.35,2.26
211.44,2.19
213.56,2.12
215.69,2.05
217.85,1.98
220.03,1.92
222.23,1.85
224.45,1.79
226.70,1.71
228.96,1.64
231.25,1.58
233.57,1.52
235.90,1.45
238.26,1.38
240.64,1.31
243.05,1.25
245.48,1.20
247.93,1.13
250.41,1.06
252.92,1.00
255.45,0.93
258.00,0.87
260.58,0.81
263.19,0.74
265.82,0.67
268.48,0.61
271.16,0.54
273.87,0.47
276.61,0.41
279.38,0.35
282.17,0.29
284.99,0.23
287.84,0.16
290.72,0.09
293.63,0.03
296.57,-0.03
299.53,-0.08
302.53,-0.14
305.55,-0.20
308.61,-0.25
311.69,-0.31
314.81,-0.36
317.96,-0.42
321.14,-0.47
324.35,-0.52
327.59,-0.59
330.87,-0.65
334.18,-0.72
337.52,-0.78
340.90,-0.84
344.30,-0.91
347.75,-0.97
351.23,-1.04
354.74,-1.09
358.28,-1.14
361.87,-1.19
365.49,-1.24
369.14,-1.30
372.83,-1.34
376.56,-1.38
380.33,-1.44
384.13,-1.50
387.97,-1.56
391.85,-1.61
395.77,-1.66
399.73,-1.70
403.72,-1.75
407.76,-1.80
411.84,-1.82
415.96,-1.84
420.12,-1.87
424.32,-1.91
428.56,-1.94
432.85,-1.95
437.18,-1.96
441.55,-1.96
445.96,-1.96
450.42,-1.96
454.93,-1.91
459.48,-1.85
464.07,-1.78
468.71,-1.70
473.40,-1.60
478.13,-1.50
482.91,-1.39
487.74,-1.25
492.62,-1.12
497.55,-1.01
502.52,-0.89
507.55,-0.76
512.62,-0.64
517.75,-0.54
522.93,-0.44
528.16,-0.35
533.44,-0.27
538.77,-0.19
544.16,-0.14
549.60,-0.11
555.10,-0.08
560.65,-0.06
566.25,-0.05
571.92,-0.04
577.64,-0.04
583.41,-0.05
589.25,-0.06
595.14,-0.08
601.09,-0.11
607.10,-0.12
613.17,-0.14
619.30,-0.16
625.50,-0.18
631.75,-0.21
638.07,-0.24
644.45,-0.27
650.89,-0.30
657.40,-0.32
663.98,-0.35
670.62,-0.37
677.32,-0.40
684.10,-0.43
690.94,-0.46
697.85,-0.47
704.83,-0.50
711.87,-0.53
718.99,-0.55
726.18,-0.56
733.44,-0.58
740.78,-0.59
748.19,-0.62
755.67,-0.64
763.23,-0.65
770.86,-0.67
778.57,-0.68
786.35,-0.68
794.22,-0.68
802.16,-0.69
810.18,-0.70
818.28,-0.70
826.46,-0.70
834.73,-0.70
843.08,-0.69
851.51,-0.68
860.02,-0.67
868.62,-0.65
877.31,-0.62
886.08,-0.59
894.94,-0.57
903.89,-0.53
912.93,-0.48
922.06,-0.43
931.28,-0.38
940.59,-0.33
950.00,-0.27
959.50,-0.23
969.09,-0.18
978.78,-0.12
988.57,-0.04
998.46,-0.01
1008.44,0.08
1018.53,0.17
1028.71,0.25
1039.00,0.32
1049.39,0.39
1059.88,0.47
1070.48,0.55
1081.19,0.63
1092.00,0.72
1102.92,0.80
1113.95,0.88
1125.09,0.97
1136.34,1.06
1147.70,1.14
1159.18,1.22
1170.77,1.30
1182.48,1.38
1194.30,1.46
1206.25,1.53
1218.31,1.59
1230.49,1.67
1242.80,1.74
1255.22,1.81
1267.78,1.88
1280.45,1.94
1293.26,2.00
1306.19,2.07
1319.25,2.13
1332.45,2.18
1345.77,2.23
1359.23,2.28
1372.82,2.33
1386.55,2.38
1400.41,2.43
1414.42,2.47
1428.56,2.52
1442.85,2.56
1457.28,2.60
1471.85,2.64
1486.57,2.68
1501.43,2.72
1516.45,2.76
1531.61,2.80
1546.93,2.84
1562.40,2.89
1578.02,2.93
1593.80,2.98
1609.74,3.02
1625.84,3.06
1642.10,3.11
1658.52,3.16
1675.10,3.21
1691.85,3.28
1708.77,3.35
1725.86,3.44
1743.12,3.55
1760.55,3.67
1778.15,3.80
1795.94,3.96
1813.90,4.12
1832.03,4.28
1850.36,4.42
1868.86,4.56
1887.55,4.68
1906.42,4.79
1925.49,4.87
1944.74,4.96
1964.19,5.04
1983.83,5.14
2003.67,5.26
2023.71,5.31
2043.94,5.39
2064.38,5.48
2085.03,5.58
2105.88,5.68
2126.94,5.79
2148.20,5.91
2169.69,6.04
2191.38,6.17
2213.30,6.31
2235.43,6.44
2257.78,6.57
2280.36,6.71
2303.17,6.84
2326.20,6.97
2349.46,7.10
2372.95,7.22
2396.68,7.34
2420.65,7.45
2444.86,7.55
2469.31,7.66
2494.00,7.76
2518.94,7.84
2544.13,7.91
2569.57,7.98
2595.27,8.03
2621.22,8.07
2647.43,8.10
2673.90,8.11
2700.64,8.11
2727.65,8.10
2754.93,8.07
2782.48,8.04
2810.30,7.99
2838.40,7.95
2866.79,7.90
2895.46,7.84
2924.41,7.79
2953.65,7.73
2983.19,7.74
3013.02,7.70
3043.15,7.62
3073.58,7.59
3104.32,7.56
3135.36,7.53
3166.72,7.51
3198.38,7.49
3230.37,7.47
3262.67,7.45
3295.30,7.44
3328.25,7.43
3361.53,7.43
3395.15,7.42
3429.10,7.42
3463.39,7.42
3498.03,7.41
3533.01,7.41
3568.34,7.41
3604.02,7.40
3640.06,7.39
3676.46,7.39
3713.22,7.39
3750.36,7.40
3787.86,7.45
3825.74,7.51
3864.00,7.60
3902.64,7.70
3941.66,7.80
3981.08,7.75
4020.89,7.88
4061.10,8.20
4101.71,8.33
4142.73,8.45
4184.15,8.56
4226.00,8.64
4268.26,8.69
4310.94,8.71
4354.05,8.69
4397.59,8.62
4441.56,8.54
4485.98,8.42
4530.84,8.27
4576.15,8.09
4621.91,7.88
4668.13,7.64
4714.81,7.38
4761.96,7.10
4809.58,6.80
4857.67,6.49
4906.25,6.17
4955.31,5.86
5004.87,5.55
5054.91,5.23
5105.46,4.93
5156.52,4.64
5208.08,4.36
5260.16,4.10
5312.77,3.84
5365.89,3.58
5419.55,3.34
5473.75,3.11
5528.49,2.90
5583.77,2.72
5639.61,2.55
5696.00,2.38
5752.96,2.24
5810.49,2.12
5868.60,2.01
5927.28,2.04
5986.56,2.23
6046.42,1.98
6106.89,1.75
6167.96,1.71
6229.64,1.69
6291.93,1.66
6354.85,1.66
6418.40,1.67
6482.58,1.73
6547.41,1.85
6612.88,2.01
6679.01,2.25
6745.80,2.55
6813.26,2.89
6881.39,3.27
6950.21,3.70
7019.71,4.18
7089.91,4.76
7160.81,5.39
7232.41,6.06
7304.74,6.78
7377.79,7.57
7451.56,8.38
7526.08,9.21
7601.34,10.03
7677.35,10.78
7754.13,11.50
7831.67,11.97
7909.98,12.30
7989.08,12.40
8068.98,12.23
8149.67,11.95
8231.16,11.57
8313.47,11.12
8396.61,10.64
8480.57,10.07
8565.38,9.39
8651.03,8.59
8737.54,7.66
8824.92,6.58
8913.17,5.39
9002.30,4.16
9092.32,2.98
9183.25,1.83
9275.08,0.73
9367.83,-0.32
9461.51,-1.31
9556.12,-1.91
9651.68,-2.43
9748.20,-3.27
9845.68,-3.86
9944.14,-4.28
10043.58,-4.60
10144.02,-4.93
10245.46,-5.13
10347.91,-5.30
10451.39,-5.41
10555.91,-5.41
10661.46,-5.42
10768.08,-5.42
10875.76,-5.33
10984.52,-5.20
11094.36,-5.06
11205.31,-4.91
11317.36,-4.66
11430.53,-4.41
11544.84,-4.16
11660.29,-3.92
11776.89,-3.70
11894.66,-3.47
12013.60,-3.24
12133.74,-3.07
12255.08,-2.94
12377.63,-2.79
12501.41,-2.67
12626.42,-2.61
12752.68,-2.51
12880.21,-2.37
13009.01,-2.21
13139.10,-2.04
13270.49,-1.90
13403.20,-1.79
13537.23,-1.65
13672.60,-1.51
13809.33,-1.36
13947.42,-1.16
14086.90,-0.83
14227.77,-0.42
14370.04,0.14
14513.74,0.87
14658.88,1.90
14805.47,3.11
14953.52,4.62
15103.06,6.20
15254.09,7.78
15406.63,8.13
15560.70,8.03
15716.30,7.22
15873.47,6.52
16032.20,5.64
16192.52,3.91
16354.45,1.80
16517.99,-0.48
16683.17,-2.35
16850.01,-3.99
17018.51,-5.44
17188.69,-6.54
17360.58,-6.98
17534.18,-7.04
17709.53,-7.09
17886.62,-8.38
18065.49,-9.35
18246.14,-9.13
18428.60,-9.27
18612.89,-9.41
18799.02,-9.51
18987.01,-9.53
19176.88,-9.76
19368.65,-10.11
19562.33,-10.67
19757.96,-11.58
19955.54,-12.49
