frequency,raw
20.00,8.44
20.20,8.49
20.40,8.54
20.61,8.59
20.81,8.63
21.02,8.68
21.23,8.72
21.44,8.77
21.66,8.81
21.87,8.85
22.09,8.90
22.31,8.94
22.54,8.98
22.76,9.02
22.99,9.05
23.22,9.09
23.45,9.13
23.69,9.16
23.92,9.20
24.16,9.24
24.40,9.28
24.65,9.31
24.89,9.34
25.14,9.37
25.39,9.41
25.65,9.44
25.91,9.48
26.16,9.52
26.43,9.57
26.69,9.61
26.96,9.65
27.23,9.67
27.50,9.68
27.77,9.67
28.05,9.67
28.33,9.66
28.62,9.67
28.90,9.71
29.19,9.76
29.48,9.82
29.78,9.87
30.08,9.92
30.38,9.96
30.68,9.97
30.99,9.98
31.30,9.99
31.61,10.01
31.93,10.04
32.24,10.07
32.57,10.09
32.89,10.10
33.22,10.12
33.55,10.13
33.89,10.14
34.23,10.16
34.57,10.18
34.92,10.20
35.27,10.21
35.62,10.22
35.97,10.22
36.33,10.23
36.70,10.25
37.06,10.27
37.43,10.29
37.81,10.30
38.19,10.30
38.57,10.31
38.95,10.32
39.34,10.33
39.74,10.35
40.14,10.36
40.54,10.35
40.94,10.35
41.35,10.36
41.76,10.37
42.18,10.39
42.60,10.41
43.03,10.41
43.46,10.40
43.90,10.40
44.33,10.40
44.78,10.40
45.23,10.41
45.68,10.41
46.13,10.42
46.60,10.42
47.06,10.42
47.53,10.41
48.01,10.41
48.49,10.42
48.97,10.42
49.46,10.41
49.96,10.39
50.46,10.38
50.96,10.38
51.47,10.39
51.99,10.38
52.51,10.37
53.03,10.35
53.56,10.36
54.10,10.36
54.64,10.35
55.18,10.33
55.74,10.32
56.29,10.31
56.86,10.31
57.42,10.30
58.00,10.29
58.58,10.28
59.16,10.26
59.76,10.25
60.35,10.24
60.96,10.23
61.57,10.22
62.18,10.20
62.80,10.18
63.43,10.17
64.07,10.15
64.71,10.14
65.35,10.12
66.01,10.11
66.67,10.09
67.33,10.07
68.01,10.05
68.69,10.03
69.37,10.01
70.07,9.99
70.77,9.97
71.48,9.95
72.19,9.93
72.91,9.91
73.64,9.89
74.38,9.86
75.12,9.84
75.87,9.82
76.63,9.79
77.40,9.77
78.17,9.75
78.95,9.72
79.74,9.70
80.54,9.67
81.35,9.65
82.16,9.62
82.98,9.59
83.81,9.56
84.65,9.53
85.50,9.50
86.35,9.48
87.22,9.45
88.09,9.42
88.97,9.39
89.86,9.36
90.76,9.33
91.66,9.29
92.58,9.26
93.51,9.23
94.44,9.20
95.39,9.16
96.34,9.13
97.30,9.10
98.28,9.06
99.26,9.03
100.25,8.99
101.25,8.96
102.27,8.92
103.29,8.88
104.32,8.85
105.37,8.81
106.42,8.78
107.48,8.74
108.56,8.70
109.64,8.66
110.74,8.63
111.85,8.59
112.97,8.55
114.10,8.50
115.24,8.46
116.39,8.42
117.55,8.38
118.73,8.34
119.92,8.30
121.12,8.26
122.33,8.22
123.55,8.17
124.79,8.13
126.03,8.09
127.29,8.05
128.57,8.00
129.85,7.96
131.15,7.91
132.46,7.87
133.79,7.82
135.12,7.78
136.48,7.73
137.84,7.69
139.22,7.64
140.61,7.59
142.02,7.55
143.44,7.50
144.87,7.45
146.32,7.40
147.78,7.35
149.26,7.31
150.75,7.26
152.26,7.21
153.78,7.16
155.32,7.11
156.88,7.06
158.44,7.01
160.03,6.96
161.63,6.91
163.24,6.86
164.88,6.81
166.53,6.76
168.19,6.71
169.87,6.66
171.57,6.61
173.29,6.56
175.02,6.50
176.77,6.45
178.54,6.40
180.32,6.34
182.13,6.30
183.95,6.24
185.79,6.19
187.65,6.14
189.52,6.08
191.42,6.03
193.33,5.98
195.27,5.92
197.22,5.87
199.19,5.81
201.18,5.76
203.19,5.71
205.23,5.66
207.28,5.60
209.35,5.55
211.44,5.50
213.56,5.44
215.69,5.39
217.85,5.34
220.03,5.28
222.23,5.23
224.45,5.18
226.70,5.12
228.96,5.07
231.25,5.01
233.57,4.96
235.90,4.90
238.26,4.85
240.64,4.80
243.05,4.74
245.48,4.69
247.93,4.63
250.41,4.58
252.92,4.53
255.45,4.48
258.00,4.42
260.58,4.37
263.19,4.32
265.82,4.27
268.48,4.22
271.16,4.17
273.87,4.12
276.61,4.06
279.38,4.01
282.17,3.95
284.99,3.90
287.84,3.85
290.72,3.79
293.63,3.74
296.57,3.69
299.53,3.64
302.53,3.58
305.55,3.52
308.61,3.46
311.69,3.41
314.81,3.36
317.96,3.30
321.14,3.25
324.35,3.20
327.59,3.16
330.87,3.11
334.18,3.08
337.52,3.04
340.90,3.01
344.30,2.97
347.75,2.92
351.23,2.88
354.74,2.83
358.28,2.78
361.87,2.73
365.49,2.67
369.14,2.62
372.83,2.57
376.56,2.52
380.33,2.47
384.13,2.41
387.97,2.36
391.85,2.31
395.77,2.26
399.73,2.21
403.72,2.16
407.76,2.12
411.84,2.07
415.96,2.02
420.12,1.97
424.32,1.92
428.56,1.87
432.85,1.83
437.18,1.78
441.55,1.73
445.96,1.69
450.42,1.64
454.93,1.59
459.48,1.55
464.07,1.50
468.71,1.46
473.40,1.41
478.13,1.37
482.91,1.33
487.74,1.28
492.62,1.24
497.55,1.20
502.52,1.15
507.55,1.11
512.62,1.07
517.75,1.02
522.93,0.98
528.16,0.94
533.44,0.90
538.77,0.86
544.16,0.82
549.60,0.78
555.10,0.74
560.65,0.70
566.25,0.66
571.92,0.63
577.64,0.59
583.41,0.55
589.25,0.51
595.14,0.48
601.09,0.45
607.10,0.41
613.17,0.37
619.30,0.34
625.50,0.30
631.75,0.27
638.07,0.23
644.45,0.20
650.89,0.17
657.40,0.13
663.98,0.10
670.62,0.08
677.32,0.04
684.10,0.01
690.94,-0.02
697.85,-0.04
704.83,-0.07
711.87,-0.09
718.99,-0.12
726.18,-0.15
733.44,-0.17
740.78,-0.19
748.19,-0.21
755.67,-0.23
763.23,-0.25
770.86,-0.27
778.57,-0.29
786.35,-0.30
794.22,-0.31
802.16,-0.33
810.18,-0.34
818.28,-0.35
826.46,-0.35
834.73,-0.36
843.08,-0.36
851.51,-0.37
860.02,-0.36
868.62,-0.36
877.31,-0.35
886.08,-0.34
894.94,-0.33
903.89,-0.31
912.93,-0.30
922.06,-0.27
931.28,-0.25
940.59,-0.22
950.00,-0.19
959.50,-0.16
969.09,-0.13
978.78,-0.09
988.57,-0.05
998.46,-0.01
1008.44,0.04
1018.53,0.09
1028.71,0.14
1039.00,0.19
1049.39,0.25
1059.88,0.31
1070.48,0.37
1081.19,0.44
1092.00,0.50
1102.92,0.57
1113.95,0.64
1125.09,0.70
1136.34,0.77
1147.70,0.85
1159.18,0.92
1170.77,0.99
1182.48,1.06
1194.30,1.13
1206.25,1.20
1218.31,1.27
1230.49,1.34
1242.80,1.40
1255.22,1.47
1267.78,1.53
1280.45,1.59
1293.26,1.65
1306.19,1.71
1319.25,1.77
1332.45,1.82
1345.77,1.87
1359.23,1.92
1372.82,1.97
1386.55,2.02
1400.41,2.07
1414.42,2.11
1428.56,2.16
1442.85,2.20
1457.28,2.24
1471.85,2.29
1486.57,2.33
1501.43,2.37
1516.45,2.41
1531.61,2.45
1546.93,2.48
1562.40,2.52
1578.02,2.56
1593.80,2.60
1609.74,2.63
1625.84,2.67
1642.10,2.71
1658.52,2.74
1675.10,2.78
1691.85,2.81
1708.77,2.85
1725.86,2.89
1743.12,2.92
1760.55,2.96
1778.15,2.99
1795.94,3.02
1813.90,3.06
1832.03,3.09
1850.36,3.12
1868.86,3.15
1887.55,3.18
1906.42,3.22
1925.49,3.25
1944.74,3.28
1964.19,3.31
1983.83,3.33
2003.67,3.36
2023.71,3.39
2043.94,3.42
2064.38,3.45
2085.03,3.48
2105.88,3.51
2126.94,3.55
2148.20,3.58
2169.69,3.62
2191.38,3.66
2213.30,3.71
2235.43,3.76
2257.78,3.82
2280.36,3.89
2303.17,3.96
2326.20,4.04
2349.46,4.13
2372.95,4.22
2396.68,4.32
2420.65,4.42
2444.86,4.53
2469.31,4.64
2494.00,4.74
2518.94,4.84
2544.13,4.94
2569.57,5.02
2595.27,5.10
2621.22,5.17
2647.43,5.23
2673.90,5.28
2700.64,5.33
2727.65,5.37
2754.93,5.41
2782.48,5.45
2810.30,5.49
2838.40,5.54
2866.79,5.58
2895.46,5.63
2924.41,5.68
2953.65,5.73
2983.19,5.78
3013.02,5.83
3043.15,5.88
3073.58,5.92
3104.32,5.95
3135.36,5.96
3166.72,5.95
3198.38,5.93
3230.37,5.87
3262.67,5.78
3295.30,5.66
3328.25,5.50
3361.53,5.30
3395.15,5.07
3429.10,4.80
3463.39,4.50
3498.03,4.18
3533.01,3.83
3568.34,3.47
3604.02,3.09
3640.06,2.70
3676.46,2.31
3713.22,1.93
3750.36,1.55
3787.86,1.23
3825.74,0.92
3864.00,0.67
3902.64,0.53
3941.66,0.41
3981.08,0.39
4020.89,0.45
4061.10,0.55
4101.71,0.73
4142.73,0.93
4184.15,1.15
4226.00,1.38
4268.26,1.62
4310.94,1.85
4354.05,2.09
4397.59,2.32
4441.56,2.56
4485.98,2.78
4530.84,3.01
4576.15,3.24
4621.91,3.47
4668.13,3.71
4714.81,3.96
4761.96,4.21
4809.58,4.48
4857.67,4.75
4906.25,5.04
4955.31,5.32
5004.87,5.61
5054.91,5.90
5105.46,6.17
5156.52,6.41
5208.08,6.62
5260.16,6.75
5312.77,6.85
5365.89,6.86
5419.55,6.80
5473.75,6.67
5528.49,6.49
5583.77,6.23
5639.61,5.93
5696.00,5.60
5752.96,5.24
5810.49,4.87
5868.60,4.50
5927.28,4.13
5986.56,3.76
6046.42,3.42
6106.89,3.09
6167.96,2.78
6229.64,2.49
6291.93,2.24
6354.85,2.01
6418.40,1.81
6482.58,1.63
6547.41,1.48
6612.88,1.35
6679.01,1.25
6745.80,1.18
6813.26,1.12
6881.39,1.09
6950.21,1.07
7019.71,1.07
7089.91,1.08
7160.81,1.12
7232.41,1.18
7304.74,1.26
7377.79,1.37
7451.56,1.50
7526.08,1.66
7601.34,1.84
7677.35,2.01
7754.13,2.19
7831.67,2.33
7909.98,2.43
7989.08,2.47
8068.98,2.33
8149.67,2.06
8231.16,1.60
8313.47,0.93
8396.61,0.19
8480.57,-0.57
8565.38,-0.90
8651.03,-0.63
8737.54,0.47
8824.92,2.08
8913.17,3.32
9002.30,4.36
9092.32,5.11
9183.25,5.51
9275.08,5.72
9367.83,5.82
9461.51,5.83
9556.12,5.80
9651.68,5.77
9748.20,5.75
9845.68,5.77
9944.14,5.81
10043.58,5.88
10144.02,5.97
10245.46,6.08
10347.91,6.19
10451.39,6.33
10555.91,6.49
10661.46,6.66
10768.08,6.85
10875.76,7.04
10984.52,7.19
11094.36,7.30
11205.31,7.31
11317.36,7.12
11430.53,6.80
11544.84,6.22
11660.29,5.47
11776.89,4.66
11894.66,3.70
12013.60,2.72
12133.74,1.72
12255.08,0.73
12377.63,-0.25
12501.41,-1.17
12626.42,-1.99
12752.68,-2.71
12880.21,-3.22
13009.01,-3.63
13139.10,-4.04
13270.49,-4.29
13403.20,-4.52
13537.23,-4.80
13672.60,-5.04
13809.33,-5.27
13947.42,-5.46
14086.90,-5.67
14227.77,-5.88
14370.04,-6.09
14513.74,-6.29
14658.88,-6.42
14805.47,-6.50
14953.52,-6.48
15103.06,-6.33
15254.09,-6.11
15406.63,-5.74
15560.70,-5.30
15716.30,-4.76
15873.47,-4.12
16032.20,-3.47
16192.52,-2.83
16354.45,-2.34
16517.99,-1.98
16683.17,-1.90
16850.01,-2.00
17018.51,-2.21
17188.69,-2.50
17360.58,-2.72
17534.18,-2.88
17709.53,-2.88
17886.62,-2.76
18065.49,-2.61
18246.14,-2.47
18428.60,-2.72
18612.89,-3.39
18799.02,-4.44
18987.01,-5.89
19176.88,-7.56
19368.65,-9.34
19562.33,-11.25
19757.96,-13.33
19955.54,-15.42
