frequency,raw
20.00,9.27
20.20,9.29
20.40,9.31
20.61,9.32
20.81,9.33
21.02,9.34
21.23,9.35
21.44,9.36
21.66,9.37
21.87,9.38
22.09,9.39
22.31,9.40
22.54,9.41
22.76,9.43
22.99,9.44
23.22,9.45
23.45,9.46
23.69,9.47
23.92,9.49
24.16,9.50
24.40,9.51
24.65,9.52
24.89,9.52
25.14,9.52
25.39,9.52
25.65,9.53
25.91,9.54
26.16,9.55
26.43,9.56
26.69,9.57
26.96,9.58
27.23,9.58
27.50,9.58
27.77,9.57
28.05,9.56
28.33,9.56
28.62,9.55
28.90,9.55
29.19,9.56
29.48,9.56
29.78,9.57
30.08,9.57
30.38,9.57
30.68,9.56
30.99,9.55
31.30,9.54
31.61,9.54
31.93,9.53
32.24,9.53
32.57,9.53
32.89,9.53
33.22,9.52
33.55,9.52
33.89,9.51
34.23,9.50
34.57,9.48
34.92,9.47
35.27,9.47
35.62,9.46
35.97,9.46
36.33,9.46
36.70,9.45
37.06,9.44
37.43,9.42
37.81,9.40
38.19,9.39
38.57,9.38
38.95,9.37
39.34,9.36
39.74,9.35
40.14,9.33
40.54,9.31
40.94,9.29
41.35,9.28
41.76,9.26
42.18,9.25
42.60,9.23
43.03,9.21
43.46,9.19
43.90,9.17
44.33,9.15
44.78,9.13
45.23,9.11
45.68,9.08
46.13,9.06
46.60,9.04
47.06,9.01
47.53,8.99
48.01,8.96
48.49,8.94
48.97,8.92
49.46,8.90
49.96,8.88
50.46,8.86
50.96,8.83
51.47,8.80
51.99,8.78
52.51,8.75
53.03,8.72
53.56,8.69
54.10,8.66
54.64,8.63
55.18,8.60
55.74,8.56
56.29,8.53
56.86,8.50
57.42,8.47
58.00,8.43
58.58,8.40
59.16,8.37
59.76,8.33
60.35,8.29
60.96,8.26
61.57,8.23
62.18,8.20
62.80,8.16
63.43,8.12
64.07,8.09
64.71,8.06
65.35,8.02
66.01,7.97
66.67,7.93
67.33,7.88
68.01,7.84
68.69,7.79
69.37,7.75
70.07,7.71
70.77,7.66
71.48,7.62
72.19,7.57
72.91,7.53
73.64,7.48
74.38,7.43
75.12,7.39
75.87,7.34
76.63,7.29
77.40,7.24
78.17,7.19
78.95,7.15
79.74,7.09
80.54,7.04
81.35,6.99
82.16,6.94
82.98,6.89
83.81,6.83
84.65,6.78
85.50,6.73
86.35,6.67
87.22,6.61
88.09,6.56
88.97,6.51
89.86,6.45
90.76,6.39
91.66,6.33
92.58,6.28
93.51,6.22
94.44,6.16
95.39,6.10
96.34,6.04
97.30,5.99
98.28,5.92
99.26,5.86
100.25,5.80
101.25,5.74
102.27,5.68
103.29,5.62
104.32,5.56
105.37,5.49
106.42,5.43
107.48,5.37
108.56,5.30
109.64,5.24
110.74,5.18
111.85,5.11
112.97,5.05
114.10,4.99
115.24,4.92
116.39,4.85
117.55,4.79
118.73,4.72
119.92,4.64
121.12,4.58
122.33,4.53
123.55,4.46
124.79,4.39
126.03,4.33
127.29,4.26
128.57,4.20
129.85,4.13
131.15,4.06
132.46,4.00
133.79,3.93
135.12,3.87
136.48,3.80
137.84,3.73
139.22,3.67
140.61,3.60
142.02,3.54
143.44,3.47
144.87,3.41
146.32,3.34
147.78,3.28
149.26,3.21
150.75,3.15
152.26,3.09
153.78,3.03
155.32,2.97
156.88,2.91
158.44,2.84
160.03,2.78
161.63,2.72
163.24,2.66
164.88,2.60
166.53,2.54
168.19,2.49
169.87,2.43
171.57,2.37
173.29,2.32
175.02,2.27
176.77,2.21
178.54,2.15
180.32,2.10
182.13,2.05
183.95,2.00
185.79,1.95
187.65,1.90
189.52,1.86
191.42,1.81
193.33,1.76
195.27,1.72
197.22,1.67
199.19,1.63
201.18,1.59
203.19,1.55
205.23,1.51
207.28,1.48
209.35,1.44
211.44,1.40
213.56,1.37
215.69,1.34
217.85,1.30
220.03,1.27
222.23,1.23
224.45,1.20
226.70,1.16
228.96,1.13
231.25,1.10
233.57,1.06
235.90,1.04
238.26,1.01
240.64,0.99
243.05,0.95
245.48,0.92
247.93,0.89
250.41,0.86
252.92,0.84
255.45,0.81
258.00,0.79
260.58,0.76
263.19,0.74
265.82,0.72
268.48,0.70
271.16,0.68
273.87,0.66
276.61,0.65
279.38,0.63
282.17,0.62
284.99,0.61
287.84,0.59
290.72,0.58
293.63,0.57
296.57,0.56
299.53,0.54
302.53,0.53
305.55,0.53
308.61,0.52
311.69,0.50
314.81,0.50
317.96,0.49
321.14,0.48
324.35,0.47
327.59,0.47
330.87,0.46
334.18,0.45
337.52,0.45
340.90,0.44
344.30,0.44
347.75,0.43
351.23,0.42
354.74,0.42
358.28,0.42
361.87,0.41
365.49,0.41
369.14,0.40
372.83,0.40
376.56,0.39
380.33,0.39
384.13,0.39
387.97,0.38
391.85,0.38
395.77,0.38
399.73,0.38
403.72,0.37
407.76,0.37
411.84,0.37
415.96,0.36
420.12,0.36
424.32,0.36
428.56,0.36
432.85,0.36
437.18,0.36
441.55,0.35
445.96,0.35
450.42,0.35
454.93,0.34
459.48,0.34
464.07,0.34
468.71,0.33
473.40,0.33
478.13,0.32
482.91,0.32
487.74,0.31
492.62,0.31
497.55,0.30
502.52,0.30
507.55,0.29
512.62,0.28
517.75,0.28
522.93,0.27
528.16,0.26
533.44,0.25
538.77,0.25
544.16,0.24
549.60,0.23
555.10,0.22
560.65,0.21
566.25,0.21
571.92,0.20
577.64,0.19
583.41,0.18
589.25,0.16
595.14,0.15
601.09,0.14
607.10,0.13
613.17,0.12
619.30,0.10
625.50,0.09
631.75,0.08
638.07,0.07
644.45,0.06
650.89,0.05
657.40,0.03
663.98,0.02
670.62,0.01
677.32,-0.01
684.10,-0.02
690.94,-0.03
697.85,-0.04
704.83,-0.06
711.87,-0.07
718.99,-0.09
726.18,-0.10
733.44,-0.11
740.78,-0.12
748.19,-0.13
755.67,-0.14
763.23,-0.15
770.86,-0.17
778.57,-0.18
786.35,-0.19
794.22,-0.20
802.16,-0.21
810.18,-0.22
818.28,-0.22
826.46,-0.23
834.73,-0.24
843.08,-0.25
851.51,-0.26
860.02,-0.26
868.62,-0.27
877.31,-0.27
886.08,-0.28
894.94,-0.28
903.89,-0.28
912.93,-0.28
922.06,-0.27
931.28,-0.27
940.59,-0.25
950.00,-0.23
959.50,-0.20
969.09,-0.16
978.78,-0.12
988.57,-0.06
998.46,-0.01
1008.44,0.05
1018.53,0.11
1028.71,0.17
1039.00,0.24
1049.39,0.30
1059.88,0.37
1070.48,0.43
1081.19,0.50
1092.00,0.56
1102.92,0.62
1113.95,0.68
1125.09,0.75
1136.34,0.81
1147.70,0.87
1159.18,0.93
1170.77,0.99
1182.48,1.04
1194.30,1.10
1206.25,1.15
1218.31,1.21
1230.49,1.26
1242.80,1.30
1255.22,1.35
1267.78,1.39
1280.45,1.44
1293.26,1.47
1306.19,1.51
1319.25,1.55
1332.45,1.58
1345.77,1.61
1359.23,1.64
1372.82,1.66
1386.55,1.69
1400.41,1.71
1414.42,1.73
1428.56,1.75
1442.85,1.77
1457.28,1.79
1471.85,1.81
1486.57,1.83
1501.43,1.85
1516.45,1.86
1531.61,1.88
1546.93,1.89
1562.40,1.91
1578.02,1.93
1593.80,1.95
1609.74,1.97
1625.84,1.99
1642.10,2.01
1658.52,2.03
1675.10,2.05
1691.85,2.08
1708.77,2.10
1725.86,2.13
1743.12,2.16
1760.55,2.20
1778.15,2.23
1795.94,2.27
1813.90,2.30
1832.03,2.35
1850.36,2.39
1868.86,2.44
1887.55,2.49
1906.42,2.54
1925.49,2.59
1944.74,2.65
1964.19,2.71
1983.83,2.78
2003.67,2.85
2023.71,2.92
2043.94,2.99
2064.38,3.07
2085.03,3.15
2105.88,3.23
2126.94,3.32
2148.20,3.41
2169.69,3.51
2191.38,3.61
2213.30,3.71
2235.43,3.82
2257.78,3.93
2280.36,4.04
2303.17,4.17
2326.20,4.29
2349.46,4.42
2372.95,4.55
2396.68,4.68
2420.65,4.82
2444.86,4.96
2469.31,5.11
2494.00,5.26
2518.94,5.41
2544.13,5.56
2569.57,5.71
2595.27,5.86
2621.22,6.02
2647.43,6.17
2673.90,6.32
2700.64,6.46
2727.65,6.61
2754.93,6.74
2782.48,6.88
2810.30,7.00
2838.40,7.12
2866.79,7.22
2895.46,7.32
2924.41,7.41
2953.65,7.49
2983.19,7.55
3013.02,7.60
3043.15,7.64
3073.58,7.66
3104.32,7.67
3135.36,7.67
3166.72,7.65
3198.38,7.62
3230.37,7.58
3262.67,7.54
3295.30,7.48
3328.25,7.41
3361.53,7.34
3395.15,7.27
3429.10,7.18
3463.39,7.10
3498.03,7.01
3533.01,6.92
3568.34,6.83
3604.02,6.74
3640.06,6.65
3676.46,6.56
3713.22,6.48
3750.36,6.39
3787.86,6.30
3825.74,6.22
3864.00,6.13
3902.64,6.05
3941.66,5.97
3981.08,5.88
4020.89,5.80
4061.10,5.71
4101.71,5.62
4142.73,5.53
4184.15,5.44
4226.00,5.34
4268.26,5.24
4310.94,5.14
4354.05,5.03
4397.59,4.91
4441.56,4.80
4485.98,4.67
4530.84,4.55
4576.15,4.43
4621.91,4.31
4668.13,4.21
4714.81,4.12
4761.96,4.04
4809.58,3.99
4857.67,3.96
4906.25,3.96
4955.31,3.98
5004.87,4.03
5054.91,4.10
5105.46,4.19
5156.52,4.30
5208.08,4.43
5260.16,4.57
5312.77,4.71
5365.89,4.87
5419.55,5.02
5473.75,5.18
5528.49,5.33
5583.77,5.46
5639.61,5.57
5696.00,5.67
5752.96,5.72
5810.49,5.75
5868.60,5.73
5927.28,5.69
5986.56,5.62
6046.42,5.52
6106.89,5.40
6167.96,5.25
6229.64,5.09
6291.93,4.93
6354.85,4.76
6418.40,4.60
6482.58,4.44
6547.41,4.30
6612.88,4.16
6679.01,4.04
6745.80,3.95
6813.26,3.87
6881.39,3.83
6950.21,3.83
7019.71,3.86
7089.91,3.94
7160.81,4.05
7232.41,4.22
7304.74,4.45
7377.79,4.72
7451.56,5.01
7526.08,5.30
7601.34,5.60
7677.35,5.88
7754.13,6.15
7831.67,6.34
7909.98,6.47
7989.08,6.51
8068.98,6.40
8149.67,6.22
8231.16,5.93
8313.47,5.57
8396.61,5.17
8480.57,4.75
8565.38,4.31
8651.03,3.89
8737.54,3.48
8824.92,3.10
8913.17,2.76
9002.30,2.43
9092.32,2.16
9183.25,1.93
9275.08,1.73
9367.83,1.58
9461.51,1.46
9556.12,1.38
9651.68,1.35
9748.20,1.34
9845.68,1.37
9944.14,1.41
10043.58,1.46
10144.02,1.52
10245.46,1.55
10347.91,1.55
10451.39,1.52
10555.91,1.45
10661.46,1.30
10768.08,1.10
10875.76,0.84
10984.52,0.50
11094.36,0.13
11205.31,-0.27
11317.36,-0.68
11430.53,-1.09
11544.84,-1.50
11660.29,-1.90
11776.89,-2.29
11894.66,-2.67
12013.60,-3.05
12133.74,-3.44
12255.08,-3.84
12377.63,-4.23
12501.41,-4.62
12626.42,-4.97
12752.68,-5.30
12880.21,-5.55
13009.01,-5.76
13139.10,-5.96
13270.49,-6.06
13403.20,-6.09
13537.23,-5.99
13672.60,-5.81
13809.33,-5.54
13947.42,-5.11
14086.90,-4.52
14227.77,-3.85
14370.04,-3.02
14513.74,-2.00
14658.88,-0.71
14805.47,0.63
14953.52,2.04
15103.06,2.94
15254.09,3.57
15406.63,2.92
15560.70,2.08
15716.30,0.95
15873.47,-0.04
16032.20,-0.94
16192.52,-1.58
16354.45,-2.02
16517.99,-2.33
16683.17,-2.37
16850.01,-2.32
17018.51,-2.23
17188.69,-2.36
17360.58,-3.00
17534.18,-4.05
17709.53,-5.62
17886.62,-6.99
18065.49,-8.16
18246.14,-9.07
18428.60,-9.93
18612.89,-11.08
18799.02,-12.56
18987.01,-14.45
19176.88,-17.19
19368.65,-20.50
19562.33,-24.60
19757.96,-29.68
19955.54,-34.76
