frequency,raw
20.00,8.53
20.20,8.56
20.40,8.59
20.61,8.62
20.81,8.64
21.02,8.67
21.23,8.69
21.44,8.72
21.66,8.74
21.87,8.77
22.09,8.80
22.31,8.82
22.54,8.85
22.76,8.88
22.99,8.90
23.22,8.93
23.45,8.95
23.69,8.98
23.92,9.00
24.16,9.02
24.40,9.04
24.65,9.06
24.89,9.09
25.14,9.11
25.39,9.13
25.65,9.14
25.91,9.16
26.16,9.18
26.43,9.19
26.69,9.21
26.96,9.22
27.23,9.24
27.50,9.26
27.77,9.28
28.05,9.30
28.33,9.31
28.62,9.32
28.90,9.33
29.19,9.34
29.48,9.34
29.78,9.36
30.08,9.37
30.38,9.39
30.68,9.41
30.99,9.43
31.30,9.45
31.61,9.47
31.93,9.48
32.24,9.49
32.57,9.49
32.89,9.50
33.22,9.50
33.55,9.51
33.89,9.52
34.23,9.53
34.57,9.54
34.92,9.55
35.27,9.56
35.62,9.56
35.97,9.57
36.33,9.58
36.70,9.59
37.06,9.59
37.43,9.60
37.81,9.61
38.19,9.61
38.57,9.62
38.95,9.62
39.34,9.62
39.74,9.63
40.14,9.63
40.54,9.63
40.94,9.63
41.35,9.64
41.76,9.64
42.18,9.64
42.60,9.64
43.03,9.64
43.46,9.64
43.90,9.64
44.33,9.64
44.78,9.64
45.23,9.64
45.68,9.64
46.13,9.64
46.60,9.64
47.06,9.63
47.53,9.63
48.01,9.63
48.49,9.62
48.97,9.62
49.46,9.61
49.96,9.61
50.46,9.61
50.96,9.61
51.47,9.60
51.99,9.59
52.51,9.58
53.03,9.58
53.56,9.57
54.10,9.56
54.64,9.55
55.18,9.55
55.74,9.54
56.29,9.53
56.86,9.52
57.42,9.51
58.00,9.50
58.58,9.50
59.16,9.49
59.76,9.48
60.35,9.47
60.96,9.45
61.57,9.44
62.18,9.43
62.80,9.42
63.43,9.41
64.07,9.39
64.71,9.38
65.35,9.37
66.01,9.35
66.67,9.34
67.33,9.32
68.01,9.31
68.69,9.29
69.37,9.28
70.07,9.26
70.77,9.24
71.48,9.23
72.19,9.21
72.91,9.19
73.64,9.17
74.38,9.16
75.12,9.14
75.87,9.12
76.63,9.10
77.40,9.08
78.17,9.06
78.95,9.04
79.74,9.01
80.54,8.99
81.35,8.97
82.16,8.95
82.98,8.93
83.81,8.90
84.65,8.88
85.50,8.85
86.35,8.83
87.22,8.80
88.09,8.78
88.97,8.75
89.86,8.73
90.76,8.70
91.66,8.68
92.58,8.65
93.51,8.62
94.44,8.60
95.39,8.57
96.34,8.55
97.30,8.52
98.28,8.49
99.26,8.46
100.25,8.43
101.25,8.40
102.27,8.37
103.29,8.35
104.32,8.32
105.37,8.29
106.42,8.25
107.48,8.22
108.56,8.19
109.64,8.15
110.74,8.12
111.85,8.08
112.97,8.05
114.10,8.02
115.24,7.98
116.39,7.94
117.55,7.91
118.73,7.87
119.92,7.83
121.12,7.80
122.33,7.76
123.55,7.72
124.79,7.68
126.03,7.64
127.29,7.60
128.57,7.56
129.85,7.52
131.15,7.48
132.46,7.44
133.79,7.40
135.12,7.36
136.48,7.32
137.84,7.27
139.22,7.23
140.61,7.19
142.02,7.15
143.44,7.11
144.87,7.07
146.32,7.03
147.78,6.99
149.26,6.94
150.75,6.89
152.26,6.85
153.78,6.80
155.32,6.76
156.88,6.72
158.44,6.68
160.03,6.63
161.63,6.59
163.24,6.55
164.88,6.51
166.53,6.46
168.19,6.41
169.87,6.37
171.57,6.32
173.29,6.28
175.02,6.23
176.77,6.18
178.54,6.13
180.32,6.08
182.13,6.04
183.95,5.99
185.79,5.94
187.65,5.89
189.52,5.84
191.42,5.79
193.33,5.75
195.27,5.70
197.22,5.65
199.19,5.60
201.18,5.54
203.19,5.49
205.23,5.44
207.28,5.39
209.35,5.34
211.44,5.29
213.56,5.23
215.69,5.18
217.85,5.12
220.03,5.07
222.23,5.01
224.45,4.96
226.70,4.91
228.96,4.85
231.25,4.79
233.57,4.74
235.90,4.69
238.26,4.63
240.64,4.57
243.05,4.52
245.48,4.46
247.93,4.41
250.41,4.35
252.92,4.29
255.45,4.24
258.00,4.18
260.58,4.12
263.19,4.07
265.82,4.01
268.48,3.95
271.16,3.90
273.87,3.84
276.61,3.78
279.38,3.72
282.17,3.67
284.99,3.61
287.84,3.55
290.72,3.49
293.63,3.44
296.57,3.38
299.53,3.32
302.53,3.26
305.55,3.20
308.61,3.15
311.69,3.09
314.81,3.03
317.96,2.98
321.14,2.92
324.35,2.86
327.59,2.81
330.87,2.75
334.18,2.69
337.52,2.63
340.90,2.58
344.30,2.52
347.75,2.46
351.23,2.40
354.74,2.35
358.28,2.29
361.87,2.23
365.49,2.17
369.14,2.11
372.83,2.05
376.56,1.99
380.33,1.94
384.13,1.88
387.97,1.82
391.85,1.76
395.77,1.70
399.73,1.64
403.72,1.58
407.76,1.52
411.84,1.46
415.96,1.40
420.12,1.34
424.32,1.28
428.56,1.22
432.85,1.16
437.18,1.11
441.55,1.05
445.96,0.99
450.42,0.93
454.93,0.87
459.48,0.81
464.07,0.75
468.71,0.69
473.40,0.63
478.13,0.57
482.91,0.51
487.74,0.45
492.62,0.39
497.55,0.33
502.52,0.27
507.55,0.21
512.62,0.15
517.75,0.09
522.93,0.03
528.16,-0.03
533.44,-0.09
538.77,-0.15
544.16,-0.22
549.60,-0.28
555.10,-0.33
560.65,-0.39
566.25,-0.45
571.92,-0.51
577.64,-0.57
583.41,-0.62
589.25,-0.68
595.14,-0.73
601.09,-0.78
607.10,-0.84
613.17,-0.89
619.30,-0.93
625.50,-0.98
631.75,-1.02
638.07,-1.05
644.45,-1.07
650.89,-1.09
657.40,-1.10
663.98,-1.10
670.62,-1.10
677.32,-1.10
684.10,-1.08
690.94,-1.04
697.85,-1.00
704.83,-0.95
711.87,-0.90
718.99,-0.84
726.18,-0.77
733.44,-0.70
740.78,-0.63
748.19,-0.56
755.67,-0.49
763.23,-0.41
770.86,-0.34
778.57,-0.27
786.35,-0.20
794.22,-0.14
802.16,-0.08
810.18,-0.04
818.28,-0.01
826.46,0.02
834.73,0.04
843.08,0.05
851.51,0.06
860.02,0.06
868.62,0.05
877.31,0.05
886.08,0.04
894.94,0.03
903.89,0.02
912.93,0.01
922.06,0.00
931.28,-0.00
940.59,-0.01
950.00,-0.01
959.50,-0.02
969.09,-0.02
978.78,-0.01
988.57,-0.01
998.46,-0.00
1008.44,0.01
1018.53,0.02
1028.71,0.04
1039.00,0.06
1049.39,0.08
1059.88,0.10
1070.48,0.12
1081.19,0.15
1092.00,0.18
1102.92,0.20
1113.95,0.23
1125.09,0.27
1136.34,0.30
1147.70,0.33
1159.18,0.37
1170.77,0.40
1182.48,0.43
1194.30,0.47
1206.25,0.50
1218.31,0.53
1230.49,0.56
1242.80,0.60
1255.22,0.63
1267.78,0.66
1280.45,0.69
1293.26,0.72
1306.19,0.75
1319.25,0.78
1332.45,0.81
1345.77,0.84
1359.23,0.87
1372.82,0.91
1386.55,0.94
1400.41,0.97
1414.42,1.00
1428.56,1.04
1442.85,1.07
1457.28,1.11
1471.85,1.15
1486.57,1.19
1501.43,1.24
1516.45,1.29
1531.61,1.34
1546.93,1.40
1562.40,1.47
1578.02,1.55
1593.80,1.64
1609.74,1.74
1625.84,1.84
1642.10,1.95
1658.52,2.06
1675.10,2.17
1691.85,2.27
1708.77,2.37
1725.86,2.47
1743.12,2.57
1760.55,2.67
1778.15,2.77
1795.94,2.88
1813.90,2.98
1832.03,3.08
1850.36,3.18
1868.86,3.28
1887.55,3.38
1906.42,3.48
1925.49,3.57
1944.74,3.67
1964.19,3.76
1983.83,3.84
2003.67,3.93
2023.71,4.02
2043.94,4.10
2064.38,4.18
2085.03,4.25
2105.88,4.32
2126.94,4.38
2148.20,4.42
2169.69,4.46
2191.38,4.48
2213.30,4.49
2235.43,4.50
2257.78,4.50
2280.36,4.49
2303.17,4.47
2326.20,4.44
2349.46,4.40
2372.95,4.36
2396.68,4.32
2420.65,4.27
2444.86,4.22
2469.31,4.17
2494.00,4.13
2518.94,4.09
2544.13,4.07
2569.57,4.06
2595.27,4.05
2621.22,4.05
2647.43,4.05
2673.90,4.04
2700.64,4.02
2727.65,4.00
2754.93,3.98
2782.48,3.96
2810.30,3.93
2838.40,3.91
2866.79,3.90
2895.46,3.89
2924.41,3.88
2953.65,3.88
2983.19,3.89
3013.02,3.90
3043.15,3.92
3073.58,3.95
3104.32,3.99
3135.36,4.03
3166.72,4.08
3198.38,4.13
3230.37,4.19
3262.67,4.26
3295.30,4.32
3328.25,4.40
3361.53,4.47
3395.15,4.55
3429.10,4.63
3463.39,4.72
3498.03,4.81
3533.01,4.90
3568.34,4.99
3604.02,5.07
3640.06,5.15
3676.46,5.22
3713.22,5.28
3750.36,5.32
3787.86,5.34
3825.74,5.35
3864.00,5.34
3902.64,5.31
3941.66,5.27
3981.08,5.21
4020.89,5.15
4061.10,5.08
4101.71,5.01
4142.73,4.95
4184.15,4.88
4226.00,4.82
4268.26,4.76
4310.94,4.68
4354.05,4.58
4397.59,4.43
4441.56,4.27
4485.98,4.04
4530.84,3.78
4576.15,3.48
4621.91,3.17
4668.13,2.83
4714.81,2.49
4761.96,2.15
4809.58,1.82
4857.67,1.49
4906.25,1.19
4955.31,0.89
5004.87,0.62
5054.91,0.37
5105.46,0.14
5156.52,-0.08
5208.08,-0.26
5260.16,-0.41
5312.77,-0.53
5365.89,-0.62
5419.55,-0.68
5473.75,-0.70
5528.49,-0.69
5583.77,-0.62
5639.61,-0.51
5696.00,-0.38
5752.96,-0.16
5810.49,0.08
5868.60,0.40
5927.28,0.77
5986.56,1.19
6046.42,1.68
6106.89,2.24
6167.96,2.87
6229.64,3.56
6291.93,4.31
6354.85,5.12
6418.40,5.95
6482.58,6.78
6547.41,7.54
6612.88,8.23
6679.01,8.74
6745.80,9.04
6813.26,9.19
6881.39,9.14
6950.21,8.98
7019.71,8.79
7089.91,8.59
7160.81,8.45
7232.41,8.37
7304.74,8.36
7377.79,8.45
7451.56,8.63
7526.08,8.90
7601.34,9.26
7677.35,9.73
7754.13,10.24
7831.67,10.79
7909.98,11.29
7989.08,11.72
8068.98,11.86
8149.67,11.77
8231.16,11.37
8313.47,10.71
8396.61,9.94
8480.57,9.09
8565.38,8.24
8651.03,7.43
8737.54,6.66
8824.92,5.98
8913.17,5.40
9002.30,4.87
9092.32,4.46
9183.25,4.14
9275.08,3.89
9367.83,3.72
9461.51,3.61
9556.12,3.53
9651.68,3.41
9748.20,3.20
9845.68,2.65
9944.14,1.75
10043.58,0.47
10144.02,-1.07
10245.46,-2.59
10347.91,-3.91
10451.39,-4.89
10555.91,-5.23
10661.46,-5.25
10768.08,-5.01
10875.76,-4.61
10984.52,-4.17
11094.36,-3.70
11205.31,-3.21
11317.36,-2.59
11430.53,-1.92
11544.84,-1.17
11660.29,-0.35
11776.89,0.47
11894.66,1.18
12013.60,1.86
12133.74,2.31
12255.08,2.43
12377.63,2.34
12501.41,2.06
12626.42,1.63
12752.68,1.21
12880.21,0.89
13009.01,0.63
13139.10,0.37
13270.49,0.35
13403.20,0.41
13537.23,0.67
13672.60,1.00
13809.33,1.39
13947.42,1.72
14086.90,1.75
14227.77,1.61
14370.04,1.15
14513.74,0.36
14658.88,-0.58
14805.47,-1.44
14953.52,-2.15
15103.06,-2.57
15254.09,-2.85
15406.63,-2.70
15560.70,-2.50
15716.30,-2.21
15873.47,-2.34
16032.20,-2.74
16192.52,-3.76
16354.45,-5.11
16517.99,-6.69
16683.17,-8.68
16850.01,-10.94
17018.51,-13.41
17188.69,-16.10
17360.58,-18.77
17534.18,-21.38
17709.53,-23.86
17886.62,-26.05
18065.49,-28.30
18246.14,-30.79
18428.60,-32.04
18612.89,-32.19
18799.02,-31.61
18987.01,-30.86
19176.88,-29.79
19368.65,-29.15
19562.33,-29.10
19757.96,-29.75
19955.54,-30.39
