frequency,raw
20.00,7.84
20.20,7.87
20.40,7.90
20.61,7.93
20.81,7.96
21.02,7.99
21.23,8.02
21.44,8.04
21.66,8.07
21.87,8.10
22.09,8.12
22.31,8.14
22.54,8.16
22.76,8.19
22.99,8.21
23.22,8.23
23.45,8.25
23.69,8.27
23.92,8.29
24.16,8.31
24.40,8.33
24.65,8.35
24.89,8.37
25.14,8.40
25.39,8.42
25.65,8.44
25.91,8.46
26.16,8.49
26.43,8.51
26.69,8.53
26.96,8.54
27.23,8.56
27.50,8.57
27.77,8.58
28.05,8.59
28.33,8.60
28.62,8.61
28.90,8.63
29.19,8.64
29.48,8.66
29.78,8.67
30.08,8.69
30.38,8.70
30.68,8.71
30.99,8.72
31.30,8.73
31.61,8.74
31.93,8.75
32.24,8.76
32.57,8.77
32.89,8.78
33.22,8.79
33.55,8.80
33.89,8.81
34.23,8.82
34.57,8.83
34.92,8.84
35.27,8.84
35.62,8.85
35.97,8.86
36.33,8.87
36.70,8.87
37.06,8.88
37.43,8.88
37.81,8.89
38.19,8.89
38.57,8.90
38.95,8.90
39.34,8.90
39.74,8.91
40.14,8.91
40.54,8.91
40.94,8.92
41.35,8.92
41.76,8.92
42.18,8.92
42.60,8.92
43.03,8.93
43.46,8.93
43.90,8.93
44.33,8.93
44.78,8.93
45.23,8.93
45.68,8.93
46.13,8.93
46.60,8.92
47.06,8.92
47.53,8.92
48.01,8.92
48.49,8.91
48.97,8.91
49.46,8.91
49.96,8.90
50.46,8.90
50.96,8.90
51.47,8.90
51.99,8.89
52.51,8.88
53.03,8.88
53.56,8.87
54.10,8.87
54.64,8.86
55.18,8.85
55.74,8.85
56.29,8.84
56.86,8.83
57.42,8.83
58.00,8.82
58.58,8.81
59.16,8.81
59.76,8.80
60.35,8.78
60.96,8.77
61.57,8.77
62.18,8.76
62.80,8.75
63.43,8.74
64.07,8.73
64.71,8.71
65.35,8.70
66.01,8.69
66.67,8.68
67.33,8.67
68.01,8.65
68.69,8.64
69.37,8.63
70.07,8.61
70.77,8.60
71.48,8.59
72.19,8.57
72.91,8.56
73.64,8.54
74.38,8.53
75.12,8.51
75.87,8.49
76.63,8.47
77.40,8.46
78.17,8.44
78.95,8.42
79.74,8.41
80.54,8.39
81.35,8.37
82.16,8.35
82.98,8.33
83.81,8.31
84.65,8.29
85.50,8.27
86.35,8.25
87.22,8.23
88.09,8.21
88.97,8.19
89.86,8.16
90.76,8.14
91.66,8.12
92.58,8.09
93.51,8.07
94.44,8.04
95.39,8.02
96.34,8.00
97.30,7.97
98.28,7.94
99.26,7.92
100.25,7.89
101.25,7.86
102.27,7.84
103.29,7.81
104.32,7.78
105.37,7.75
106.42,7.72
107.48,7.69
108.56,7.66
109.64,7.64
110.74,7.61
111.85,7.57
112.97,7.54
114.10,7.51
115.24,7.48
116.39,7.44
117.55,7.41
118.73,7.37
119.92,7.34
121.12,7.31
122.33,7.28
123.55,7.24
124.79,7.20
126.03,7.17
127.29,7.14
128.57,7.10
129.85,7.07
131.15,7.04
132.46,7.01
133.79,6.98
135.12,6.94
136.48,6.91
137.84,6.88
139.22,6.84
140.61,6.81
142.02,6.77
143.44,6.74
144.87,6.70
146.32,6.66
147.78,6.62
149.26,6.58
150.75,6.54
152.26,6.49
153.78,6.45
155.32,6.41
156.88,6.37
158.44,6.32
160.03,6.25
161.63,6.23
163.24,6.19
164.88,6.14
166.53,6.10
168.19,6.06
169.87,6.02
171.57,5.98
173.29,5.95
175.02,5.92
176.77,5.89
178.54,5.86
180.32,5.83
182.13,5.80
183.95,5.77
185.79,5.74
187.65,5.71
189.52,5.67
191.42,5.63
193.33,5.59
195.27,5.54
197.22,5.50
199.19,5.45
201.18,5.40
203.19,5.35
205.23,5.30
207.28,5.25
209.35,5.20
211.44,5.15
213.56,5.10
215.69,5.05
217.85,5.00
220.03,4.95
222.23,4.90
224.45,4.85
226.70,4.80
228.96,4.75
231.25,4.70
233.57,4.65
235.90,4.61
238.26,4.56
240.64,4.51
243.05,4.45
245.48,4.40
247.93,4.35
250.41,4.30
252.92,4.25
255.45,4.20
258.00,4.15
260.58,4.10
263.19,4.05
265.82,4.00
268.48,3.94
271.16,3.89
273.87,3.84
276.61,3.79
279.38,3.74
282.17,3.69
284.99,3.64
287.84,3.58
290.72,3.53
293.63,3.48
296.57,3.43
299.53,3.37
302.53,3.32
305.55,3.27
308.61,3.22
311.69,3.16
314.81,3.11
317.96,3.05
321.14,3.00
324.35,2.94
327.59,2.89
330.87,2.84
334.18,2.78
337.52,2.73
340.90,2.67
344.30,2.62
347.75,2.57
351.23,2.52
354.74,2.46
358.28,2.41
361.87,2.35
365.49,2.30
369.14,2.25
372.83,2.19
376.56,2.14
380.33,2.09
384.13,2.04
387.97,1.99
391.85,1.95
395.77,1.90
399.73,1.86
403.72,1.81
407.76,1.77
411.84,1.72
415.96,1.68
420.12,1.63
424.32,1.59
428.56,1.54
432.85,1.50
437.18,1.46
441.55,1.41
445.96,1.37
450.42,1.33
454.93,1.29
459.48,1.25
464.07,1.21
468.71,1.16
473.40,1.12
478.13,1.09
482.91,1.05
487.74,1.01
492.62,0.98
497.55,0.94
502.52,0.91
507.55,0.88
512.62,0.85
517.75,0.82
522.93,0.79
528.16,0.76
533.44,0.73
538.77,0.71
544.16,0.68
549.60,0.65
555.10,0.62
560.65,0.60
566.25,0.57
571.92,0.55
577.64,0.52
583.41,0.50
589.25,0.48
595.14,0.46
601.09,0.44
607.10,0.43
613.17,0.41
619.30,0.40
625.50,0.38
631.75,0.37
638.07,0.36
644.45,0.34
650.89,0.33
657.40,0.32
663.98,0.31
670.62,0.29
677.32,0.28
684.10,0.27
690.94,0.25
697.85,0.24
704.83,0.22
711.87,0.20
718.99,0.19
726.18,0.17
733.44,0.15
740.78,0.14
748.19,0.12
755.67,0.12
763.23,0.11
770.86,0.12
778.57,0.13
786.35,0.16
794.22,0.19
802.16,0.22
810.18,0.25
818.28,0.25
826.46,0.24
834.73,0.20
843.08,0.15
851.51,0.10
860.02,0.05
868.62,0.01
877.31,-0.03
886.08,-0.06
894.94,-0.08
903.89,-0.10
912.93,-0.11
922.06,-0.12
931.28,-0.12
940.59,-0.11
950.00,-0.11
959.50,-0.09
969.09,-0.08
978.78,-0.06
988.57,-0.03
998.46,-0.01
1008.44,0.03
1018.53,0.06
1028.71,0.10
1039.00,0.14
1049.39,0.19
1059.88,0.23
1070.48,0.28
1081.19,0.33
1092.00,0.38
1102.92,0.43
1113.95,0.49
1125.09,0.55
1136.34,0.62
1147.70,0.69
1159.18,0.74
1170.77,0.79
1182.48,0.84
1194.30,0.90
1206.25,0.95
1218.31,1.01
1230.49,1.06
1242.80,1.11
1255.22,1.16
1267.78,1.21
1280.45,1.26
1293.26,1.30
1306.19,1.34
1319.25,1.39
1332.45,1.43
1345.77,1.47
1359.23,1.50
1372.82,1.54
1386.55,1.58
1400.41,1.61
1414.42,1.65
1428.56,1.68
1442.85,1.72
1457.28,1.75
1471.85,1.78
1486.57,1.82
1501.43,1.85
1516.45,1.89
1531.61,1.93
1546.93,1.97
1562.40,2.01
1578.02,2.06
1593.80,2.12
1609.74,2.18
1625.84,2.24
1642.10,2.32
1658.52,2.41
1675.10,2.51
1691.85,2.61
1708.77,2.71
1725.86,2.80
1743.12,2.89
1760.55,2.96
1778.15,3.04
1795.94,3.10
1813.90,3.17
1832.03,3.23
1850.36,3.30
1868.86,3.37
1887.55,3.44
1906.42,3.51
1925.49,3.58
1944.74,3.66
1964.19,3.74
1983.83,3.83
2003.67,3.92
2023.71,4.01
2043.94,4.11
2064.38,4.21
2085.03,4.32
2105.88,4.43
2126.94,4.54
2148.20,4.66
2169.69,4.78
2191.38,4.90
2213.30,5.01
2235.43,5.12
2257.78,5.22
2280.36,5.31
2303.17,5.40
2326.20,5.47
2349.46,5.54
2372.95,5.61
2396.68,5.67
2420.65,5.74
2444.86,5.80
2469.31,5.87
2494.00,5.92
2518.94,5.97
2544.13,6.00
2569.57,6.01
2595.27,6.00
2621.22,5.97
2647.43,5.90
2673.90,5.79
2700.64,5.67
2727.65,5.51
2754.93,5.33
2782.48,5.15
2810.30,4.95
2838.40,4.76
2866.79,4.57
2895.46,4.38
2924.41,4.20
2953.65,4.02
2983.19,3.86
3013.02,3.70
3043.15,3.54
3073.58,3.39
3104.32,3.25
3135.36,3.11
3166.72,2.98
3198.38,2.84
3230.37,2.70
3262.67,2.56
3295.30,2.41
3328.25,2.25
3361.53,2.09
3395.15,1.93
3429.10,1.78
3463.39,1.64
3498.03,1.52
3533.01,1.45
3568.34,1.42
3604.02,1.42
3640.06,1.49
3676.46,1.60
3713.22,1.73
3750.36,1.90
3787.86,2.10
3825.74,2.30
3864.00,2.52
3902.64,2.74
3941.66,2.97
3981.08,3.19
4020.89,3.39
4061.10,3.58
4101.71,3.77
4142.73,3.99
4184.15,4.24
4226.00,4.55
4268.26,4.88
4310.94,5.23
4354.05,5.57
4397.59,5.88
4441.56,6.17
4485.98,6.39
4530.84,6.54
4576.15,6.59
4621.91,6.57
4668.13,6.43
4714.81,6.23
4761.96,6.01
4809.58,5.77
4857.67,5.56
4906.25,5.37
4955.31,5.18
5004.87,4.95
5054.91,4.66
5105.46,4.33
5156.52,3.97
5208.08,3.57
5260.16,3.19
5312.77,2.81
5365.89,2.46
5419.55,2.13
5473.75,1.84
5528.49,1.58
5583.77,1.36
5639.61,1.18
5696.00,1.02
5752.96,0.93
5810.49,0.86
5868.60,0.85
5927.28,0.87
5986.56,0.94
6046.42,1.05
6106.89,1.21
6167.96,1.41
6229.64,1.65
6291.93,1.92
6354.85,2.26
6418.40,2.60
6482.58,2.98
6547.41,3.37
6612.88,3.77
6679.01,4.17
6745.80,4.55
6813.26,4.93
6881.39,5.31
6950.21,5.68
7019.71,6.04
7089.91,6.38
7160.81,6.71
7232.41,7.02
7304.74,7.33
7377.79,7.63
7451.56,7.92
7526.08,8.21
7601.34,8.49
7677.35,8.75
7754.13,9.00
7831.67,9.21
7909.98,9.38
7989.08,9.48
8068.98,9.45
8149.67,9.34
8231.16,9.11
8313.47,8.76
8396.61,8.33
8480.57,7.81
8565.38,7.23
8651.03,6.62
8737.54,5.98
8824.92,5.33
8913.17,4.71
9002.30,4.10
9092.32,3.55
9183.25,3.05
9275.08,2.59
9367.83,2.17
9461.51,1.80
9556.12,1.46
9651.68,1.14
9748.20,0.85
9845.68,0.57
9944.14,0.33
10043.58,0.14
10144.02,-0.00
10245.46,-0.01
10347.91,0.07
10451.39,0.21
10555.91,0.32
10661.46,0.28
10768.08,0.09
10875.76,-0.35
10984.52,-0.89
11094.36,-1.43
11205.31,-1.93
11317.36,-2.29
11430.53,-2.58
11544.84,-2.71
11660.29,-2.75
11776.89,-2.73
11894.66,-2.55
12013.60,-2.35
12133.74,-2.12
12255.08,-1.89
12377.63,-1.68
12501.41,-1.46
12626.42,-1.14
12752.68,-0.64
12880.21,0.14
13009.01,1.05
13139.10,1.96
13270.49,2.91
13403.20,3.80
13537.23,4.19
13672.60,4.25
13809.33,4.00
13947.42,3.46
14086.90,2.97
14227.77,2.52
14370.04,2.25
14513.74,2.18
14658.88,2.48
14805.47,2.97
14953.52,3.76
15103.06,4.83
15254.09,6.03
15406.63,6.86
15560.70,7.04
15716.30,6.23
15873.47,5.63
16032.20,5.06
16192.52,4.36
16354.45,3.80
16517.99,3.21
16683.17,1.83
16850.01,-1.55
17018.51,-6.50
17188.69,-13.47
17360.58,-19.92
17534.18,-24.41
17709.53,-22.03
17886.62,-19.33
18065.49,-17.00
18246.14,-15.46
18428.60,-14.46
18612.89,-13.80
18799.02,-13.59
18987.01,-14.01
19176.88,-15.45
19368.65,-17.47
19562.33,-20.10
19757.96,-23.40
19955.54,-26.70
