frequency,raw
20.00,9.16
20.20,9.15
20.40,9.14
20.61,9.13
20.81,9.11
21.02,9.09
21.23,9.08
21.44,9.06
21.66,9.04
21.87,9.02
22.09,9.01
22.31,8.99
22.54,8.98
22.76,8.97
22.99,8.95
23.22,8.94
23.45,8.92
23.69,8.90
23.92,8.88
24.16,8.85
24.40,8.82
24.65,8.79
24.89,8.77
25.14,8.74
25.39,8.72
25.65,8.70
25.91,8.69
26.16,8.67
26.43,8.65
26.69,8.63
26.96,8.61
27.23,8.58
27.50,8.55
27.77,8.52
28.05,8.49
28.33,8.47
28.62,8.44
28.90,8.42
29.19,8.39
29.48,8.37
29.78,8.34
30.08,8.31
30.38,8.29
30.68,8.26
30.99,8.23
31.30,8.20
31.61,8.18
31.93,8.14
32.24,8.11
32.57,8.08
32.89,8.05
33.22,8.02
33.55,7.99
33.89,7.96
34.23,7.93
34.57,7.90
34.92,7.86
35.27,7.83
35.62,7.80
35.97,7.76
36.33,7.73
36.70,7.69
37.06,7.66
37.43,7.63
37.81,7.59
38.19,7.56
38.57,7.52
38.95,7.49
39.34,7.45
39.74,7.41
40.14,7.37
40.54,7.34
40.94,7.30
41.35,7.27
41.76,7.23
42.18,7.19
42.60,7.15
43.03,7.10
43.46,7.06
43.90,7.02
44.33,6.99
44.78,6.95
45.23,6.92
45.68,6.87
46.13,6.83
46.60,6.79
47.06,6.74
47.53,6.70
48.01,6.66
48.49,6.62
48.97,6.59
49.46,6.55
49.96,6.51
50.46,6.46
50.96,6.42
51.47,6.37
51.99,6.33
52.51,6.28
53.03,6.24
53.56,6.19
54.10,6.15
54.64,6.10
55.18,6.05
55.74,6.01
56.29,5.96
56.86,5.92
57.42,5.87
58.00,5.82
58.58,5.77
59.16,5.72
59.76,5.67
60.35,5.62
60.96,5.58
61.57,5.53
62.18,5.49
62.80,5.44
63.43,5.40
64.07,5.36
64.71,5.31
65.35,5.26
66.01,5.20
66.67,5.16
67.33,5.11
68.01,5.06
68.69,5.01
69.37,4.97
70.07,4.92
70.77,4.87
71.48,4.82
72.19,4.77
72.91,4.72
73.64,4.66
74.38,4.61
75.12,4.57
75.87,4.52
76.63,4.47
77.40,4.42
78.17,4.36
78.95,4.31
79.74,4.26
80.54,4.21
81.35,4.16
82.16,4.11
82.98,4.06
83.81,4.01
84.65,3.96
85.50,3.91
86.35,3.86
87.22,3.81
88.09,3.76
88.97,3.70
89.86,3.65
90.76,3.60
91.66,3.55
92.58,3.50
93.51,3.45
94.44,3.40
95.39,3.35
96.34,3.30
97.30,3.24
98.28,3.19
99.26,3.14
100.25,3.09
101.25,3.04
102.27,2.99
103.29,2.94
104.32,2.89
105.37,2.84
106.42,2.79
107.48,2.74
108.56,2.69
109.64,2.64
110.74,2.59
111.85,2.54
112.97,2.49
114.10,2.44
115.24,2.39
116.39,2.34
117.55,2.29
118.73,2.25
119.92,2.20
121.12,2.15
122.33,2.10
123.55,2.05
124.79,2.00
126.03,1.95
127.29,1.91
128.57,1.86
129.85,1.81
131.15,1.77
132.46,1.72
133.79,1.67
135.12,1.62
136.48,1.58
137.84,1.53
139.22,1.49
140.61,1.44
142.02,1.40
143.44,1.35
144.87,1.31
146.32,1.26
147.78,1.22
149.26,1.17
150.75,1.13
152.26,1.08
153.78,1.04
155.32,1.00
156.88,0.95
158.44,0.91
160.03,0.86
161.63,0.82
163.24,0.78
164.88,0.73
166.53,0.69
168.19,0.64
169.87,0.60
171.57,0.56
173.29,0.51
175.02,0.46
176.77,0.41
178.54,0.38
180.32,0.35
182.13,0.30
183.95,0.26
185.79,0.24
187.65,0.22
189.52,0.21
191.42,0.19
193.33,0.18
195.27,0.16
197.22,0.13
199.19,0.11
201.18,0.08
203.19,0.05
205.23,0.02
207.28,-0.01
209.35,-0.05
211.44,-0.08
213.56,-0.11
215.69,-0.14
217.85,-0.17
220.03,-0.21
222.23,-0.24
224.45,-0.27
226.70,-0.29
228.96,-0.33
231.25,-0.35
233.57,-0.38
235.90,-0.41
238.26,-0.43
240.64,-0.45
243.05,-0.49
245.48,-0.52
247.93,-0.54
250.41,-0.57
252.92,-0.59
255.45,-0.62
258.00,-0.64
260.58,-0.66
263.19,-0.68
265.82,-0.71
268.48,-0.73
271.16,-0.75
273.87,-0.77
276.61,-0.79
279.38,-0.81
282.17,-0.83
284.99,-0.85
287.84,-0.87
290.72,-0.89
293.63,-0.91
296.57,-0.93
299.53,-0.95
302.53,-0.96
305.55,-0.98
308.61,-1.00
311.69,-1.01
314.81,-1.03
317.96,-1.05
321.14,-1.06
324.35,-1.07
327.59,-1.09
330.87,-1.10
334.18,-1.11
337.52,-1.12
340.90,-1.14
344.30,-1.15
347.75,-1.16
351.23,-1.18
354.74,-1.19
358.28,-1.21
361.87,-1.23
365.49,-1.24
369.14,-1.25
372.83,-1.26
376.56,-1.27
380.33,-1.28
384.13,-1.28
387.97,-1.29
391.85,-1.30
395.77,-1.30
399.73,-1.31
403.72,-1.32
407.76,-1.33
411.84,-1.34
415.96,-1.35
420.12,-1.36
424.32,-1.37
428.56,-1.38
432.85,-1.39
437.18,-1.40
441.55,-1.41
445.96,-1.42
450.42,-1.43
454.93,-1.43
459.48,-1.45
464.07,-1.45
468.71,-1.46
473.40,-1.47
478.13,-1.48
482.91,-1.49
487.74,-1.49
492.62,-1.50
497.55,-1.51
502.52,-1.52
507.55,-1.52
512.62,-1.53
517.75,-1.54
522.93,-1.54
528.16,-1.55
533.44,-1.55
538.77,-1.56
544.16,-1.56
549.60,-1.56
555.10,-1.57
560.65,-1.57
566.25,-1.58
571.92,-1.58
577.64,-1.58
583.41,-1.59
589.25,-1.59
595.14,-1.60
601.09,-1.60
607.10,-1.60
613.17,-1.60
619.30,-1.61
625.50,-1.61
631.75,-1.61
638.07,-1.60
644.45,-1.60
650.89,-1.60
657.40,-1.60
663.98,-1.59
670.62,-1.57
677.32,-1.56
684.10,-1.55
690.94,-1.53
697.85,-1.51
704.83,-1.49
711.87,-1.47
718.99,-1.44
726.18,-1.40
733.44,-1.37
740.78,-1.33
748.19,-1.29
755.67,-1.24
763.23,-1.20
770.86,-1.15
778.57,-1.11
786.35,-1.06
794.22,-1.01
802.16,-0.96
810.18,-0.92
818.28,-0.88
826.46,-0.83
834.73,-0.80
843.08,-0.76
851.51,-0.72
860.02,-0.68
868.62,-0.64
877.31,-0.61
886.08,-0.57
894.94,-0.54
903.89,-0.50
912.93,-0.46
922.06,-0.41
931.28,-0.37
940.59,-0.33
950.00,-0.28
959.50,-0.23
969.09,-0.18
978.78,-0.12
988.57,-0.07
998.46,-0.01
1008.44,0.05
1018.53,0.12
1028.71,0.18
1039.00,0.25
1049.39,0.32
1059.88,0.39
1070.48,0.47
1081.19,0.55
1092.00,0.63
1102.92,0.70
1113.95,0.78
1125.09,0.86
1136.34,0.94
1147.70,1.02
1159.18,1.10
1170.77,1.18
1182.48,1.26
1194.30,1.34
1206.25,1.41
1218.31,1.49
1230.49,1.56
1242.80,1.63
1255.22,1.70
1267.78,1.77
1280.45,1.84
1293.26,1.90
1306.19,1.96
1319.25,2.02
1332.45,2.08
1345.77,2.14
1359.23,2.19
1372.82,2.25
1386.55,2.30
1400.41,2.35
1414.42,2.40
1428.56,2.45
1442.85,2.50
1457.28,2.54
1471.85,2.59
1486.57,2.64
1501.43,2.69
1516.45,2.73
1531.61,2.78
1546.93,2.82
1562.40,2.87
1578.02,2.92
1593.80,2.97
1609.74,3.02
1625.84,3.07
1642.10,3.12
1658.52,3.17
1675.10,3.22
1691.85,3.28
1708.77,3.34
1725.86,3.40
1743.12,3.47
1760.55,3.55
1778.15,3.63
1795.94,3.72
1813.90,3.81
1832.03,3.90
1850.36,3.99
1868.86,4.08
1887.55,4.16
1906.42,4.24
1925.49,4.32
1944.74,4.41
1964.19,4.49
1983.83,4.58
2003.67,4.67
2023.71,4.76
2043.94,4.85
2064.38,4.95
2085.03,5.04
2105.88,5.14
2126.94,5.24
2148.20,5.35
2169.69,5.46
2191.38,5.56
2213.30,5.68
2235.43,5.79
2257.78,5.91
2280.36,6.04
2303.17,6.16
2326.20,6.30
2349.46,6.42
2372.95,6.55
2396.68,6.67
2420.65,6.79
2444.86,6.90
2469.31,7.02
2494.00,7.13
2518.94,7.24
2544.13,7.34
2569.57,7.45
2595.27,7.55
2621.22,7.65
2647.43,7.74
2673.90,7.83
2700.64,7.91
2727.65,7.99
2754.93,8.06
2782.48,8.12
2810.30,8.18
2838.40,8.23
2866.79,8.27
2895.46,8.31
2924.41,8.33
2953.65,8.35
2983.19,8.35
3013.02,8.35
3043.15,8.34
3073.58,8.32
3104.32,8.29
3135.36,8.26
3166.72,8.22
3198.38,8.18
3230.37,8.14
3262.67,8.09
3295.30,8.04
3328.25,8.00
3361.53,7.95
3395.15,7.91
3429.10,7.87
3463.39,7.83
3498.03,7.79
3533.01,7.75
3568.34,7.71
3604.02,7.67
3640.06,7.63
3676.46,7.58
3713.22,7.54
3750.36,7.50
3787.86,7.46
3825.74,7.42
3864.00,7.39
3902.64,7.35
3941.66,7.31
3981.08,7.28
4020.89,7.25
4061.10,7.22
4101.71,7.19
4142.73,7.16
4184.15,7.14
4226.00,7.12
4268.26,7.10
4310.94,7.08
4354.05,7.07
4397.59,7.05
4441.56,7.04
4485.98,7.02
4530.84,7.00
4576.15,6.99
4621.91,6.97
4668.13,6.96
4714.81,6.94
4761.96,6.92
4809.58,6.90
4857.67,6.88
4906.25,6.85
4955.31,6.82
5004.87,6.78
5054.91,6.74
5105.46,6.69
5156.52,6.63
5208.08,6.55
5260.16,6.47
5312.77,6.38
5365.89,6.29
5419.55,6.18
5473.75,6.06
5528.49,5.94
5583.77,5.81
5639.61,5.66
5696.00,5.50
5752.96,5.32
5810.49,5.13
5868.60,4.92
5927.28,4.71
5986.56,4.49
6046.42,4.28
6106.89,4.07
6167.96,3.88
6229.64,3.70
6291.93,3.54
6354.85,3.41
6418.40,3.29
6482.58,3.19
6547.41,3.13
6612.88,3.07
6679.01,3.05
6745.80,3.05
6813.26,3.07
6881.39,3.13
6950.21,3.22
7019.71,3.33
7089.91,3.48
7160.81,3.68
7232.41,3.91
7304.74,4.18
7377.79,4.49
7451.56,4.83
7526.08,5.20
7601.34,5.60
7677.35,6.01
7754.13,6.41
7831.67,6.71
7909.98,6.90
7989.08,6.94
8068.98,6.78
8149.67,6.57
8231.16,6.31
8313.47,5.77
8396.61,5.11
8480.57,4.30
8565.38,3.60
8651.03,3.02
8737.54,2.61
8824.92,1.84
8913.17,1.24
9002.30,0.72
9092.32,0.41
9183.25,-0.06
9275.08,-0.58
9367.83,-1.05
9461.51,-1.44
9556.12,-1.76
9651.68,-2.02
9748.20,-2.24
9845.68,-2.37
9944.14,-2.45
10043.58,-2.49
10144.02,-2.48
10245.46,-2.41
10347.91,-2.29
10451.39,-2.14
10555.91,-1.94
10661.46,-1.71
10768.08,-1.45
10875.76,-1.15
10984.52,-0.79
11094.36,-0.45
11205.31,-0.18
11317.36,-0.11
11430.53,-0.13
11544.84,-0.34
11660.29,-0.68
11776.89,-1.11
11894.66,-1.69
12013.60,-2.30
12133.74,-2.91
12255.08,-3.52
12377.63,-4.10
12501.41,-4.63
12626.42,-5.09
12752.68,-5.48
12880.21,-5.77
13009.01,-6.02
13139.10,-6.26
13270.49,-6.37
13403.20,-6.44
13537.23,-6.45
13672.60,-6.46
13809.33,-6.47
13947.42,-6.50
14086.90,-6.60
14227.77,-6.73
14370.04,-6.92
14513.74,-7.17
14658.88,-7.65
14805.47,-8.24
14953.52,-9.03
15103.06,-9.87
15254.09,-10.73
15406.63,-11.51
15560.70,-12.25
15716.30,-12.92
15873.47,-13.49
16032.20,-14.01
16192.52,-14.40
16354.45,-14.69
16517.99,-14.92
16683.17,-15.03
16850.01,-15.04
17018.51,-14.98
17188.69,-14.79
17360.58,-14.55
17534.18,-14.27
17709.53,-13.97
17886.62,-13.05
18065.49,-12.17
18246.14,-11.71
18428.60,-11.83
18612.89,-12.47
18799.02,-14.22
18987.01,-18.16
19176.88,-21.42
19368.65,-24.25
19562.33,-26.76
19757.96,-29.07
19955.54,-31.38
