frequency,raw
20.00,11.41
20.20,11.40
20.40,11.39
20.61,11.39
20.81,11.37
21.02,11.36
21.23,11.34
21.44,11.33
21.66,11.32
21.87,11.30
22.09,11.29
22.31,11.28
22.54,11.27
22.76,11.26
22.99,11.25
23.22,11.23
23.45,11.22
23.69,11.20
23.92,11.19
24.16,11.17
24.40,11.15
24.65,11.13
24.89,11.12
25.14,11.10
25.39,11.09
25.65,11.08
25.91,11.06
26.16,11.04
26.43,11.02
26.69,11.00
26.96,10.97
27.23,10.94
27.50,10.92
27.77,10.91
28.05,10.89
28.33,10.88
28.62,10.87
28.90,10.86
29.19,10.84
29.48,10.81
29.78,10.79
30.08,10.77
30.38,10.76
30.68,10.75
30.99,10.72
31.30,10.69
31.61,10.65
31.93,10.59
32.24,10.54
32.57,10.51
32.89,10.50
33.22,10.50
33.55,10.51
33.89,10.50
34.23,10.48
34.57,10.45
34.92,10.40
35.27,10.36
35.62,10.33
35.97,10.30
36.33,10.28
36.70,10.26
37.06,10.23
37.43,10.20
37.81,10.17
38.19,10.14
38.57,10.11
38.95,10.08
39.34,10.05
39.74,10.01
40.14,9.98
40.54,9.95
40.94,9.91
41.35,9.88
41.76,9.85
42.18,9.81
42.60,9.78
43.03,9.75
43.46,9.71
43.90,9.67
44.33,9.63
44.78,9.60
45.23,9.56
45.68,9.52
46.13,9.48
46.60,9.44
47.06,9.40
47.53,9.37
48.01,9.33
48.49,9.30
48.97,9.27
49.46,9.25
49.96,9.21
50.46,9.17
50.96,9.13
51.47,9.09
51.99,9.06
52.51,9.01
53.03,8.96
53.56,8.92
54.10,8.89
54.64,8.88
55.18,8.85
55.74,8.81
56.29,8.78
56.86,8.75
57.42,8.72
58.00,8.69
58.58,8.65
59.16,8.61
59.76,8.56
60.35,8.52
60.96,8.48
61.57,8.44
62.18,8.39
62.80,8.34
63.43,8.29
64.07,8.25
64.71,8.21
65.35,8.16
66.01,8.12
66.67,8.07
67.33,8.02
68.01,7.98
68.69,7.93
69.37,7.89
70.07,7.84
70.77,7.80
71.48,7.76
72.19,7.71
72.91,7.67
73.64,7.62
74.38,7.57
75.12,7.53
75.87,7.48
76.63,7.44
77.40,7.39
78.17,7.34
78.95,7.29
79.74,7.25
80.54,7.20
81.35,7.15
82.16,7.11
82.98,7.06
83.81,7.01
84.65,6.96
85.50,6.91
86.35,6.86
87.22,6.81
88.09,6.76
88.97,6.71
89.86,6.66
90.76,6.62
91.66,6.57
92.58,6.52
93.51,6.47
94.44,6.42
95.39,6.37
96.34,6.32
97.30,6.27
98.28,6.22
99.26,6.17
100.25,6.12
101.25,6.07
102.27,6.02
103.29,5.97
104.32,5.92
105.37,5.88
106.42,5.83
107.48,5.78
108.56,5.73
109.64,5.68
110.74,5.62
111.85,5.57
112.97,5.52
114.10,5.47
115.24,5.42
116.39,5.37
117.55,5.32
118.73,5.27
119.92,5.21
121.12,5.17
122.33,5.12
123.55,5.07
124.79,5.02
126.03,4.97
127.29,4.92
128.57,4.87
129.85,4.82
131.15,4.77
132.46,4.72
133.79,4.67
135.12,4.62
136.48,4.57
137.84,4.52
139.22,4.47
140.61,4.42
142.02,4.38
143.44,4.33
144.87,4.28
146.32,4.23
147.78,4.18
149.26,4.13
150.75,4.08
152.26,4.03
153.78,3.99
155.32,3.94
156.88,3.89
158.44,3.84
160.03,3.80
161.63,3.75
163.24,3.70
164.88,3.66
166.53,3.61
168.19,3.56
169.87,3.51
171.57,3.47
173.29,3.42
175.02,3.38
176.77,3.33
178.54,3.29
180.32,3.25
182.13,3.20
183.95,3.15
185.79,3.10
187.65,3.06
189.52,3.01
191.42,2.97
193.33,2.92
195.27,2.88
197.22,2.84
199.19,2.80
201.18,2.75
203.19,2.71
205.23,2.66
207.28,2.62
209.35,2.58
211.44,2.54
213.56,2.50
215.69,2.46
217.85,2.42
220.03,2.39
222.23,2.36
224.45,2.32
226.70,2.29
228.96,2.26
231.25,2.23
233.57,2.20
235.90,2.16
238.26,2.14
240.64,2.11
243.05,2.07
245.48,2.04
247.93,2.01
250.41,1.97
252.92,1.94
255.45,1.90
258.00,1.87
260.58,1.83
263.19,1.80
265.82,1.76
268.48,1.73
271.16,1.69
273.87,1.65
276.61,1.62
279.38,1.58
282.17,1.55
284.99,1.52
287.84,1.48
290.72,1.45
293.63,1.42
296.57,1.38
299.53,1.35
302.53,1.32
305.55,1.29
308.61,1.25
311.69,1.22
314.81,1.19
317.96,1.16
321.14,1.14
324.35,1.11
327.59,1.08
330.87,1.05
334.18,1.02
337.52,1.00
340.90,0.97
344.30,0.94
347.75,0.92
351.23,0.89
354.74,0.87
358.28,0.85
361.87,0.83
365.49,0.80
369.14,0.78
372.83,0.75
376.56,0.73
380.33,0.70
384.13,0.68
387.97,0.65
391.85,0.63
395.77,0.60
399.73,0.58
403.72,0.55
407.76,0.53
411.84,0.51
415.96,0.48
420.12,0.46
424.32,0.43
428.56,0.41
432.85,0.39
437.18,0.36
441.55,0.34
445.96,0.32
450.42,0.29
454.93,0.27
459.48,0.24
464.07,0.22
468.71,0.19
473.40,0.17
478.13,0.14
482.91,0.12
487.74,0.09
492.62,0.07
497.55,0.05
502.52,0.03
507.55,0.00
512.62,-0.02
517.75,-0.04
522.93,-0.05
528.16,-0.07
533.44,-0.08
538.77,-0.09
544.16,-0.11
549.60,-0.12
555.10,-0.14
560.65,-0.15
566.25,-0.17
571.92,-0.19
577.64,-0.20
583.41,-0.22
589.25,-0.24
595.14,-0.25
601.09,-0.27
607.10,-0.28
613.17,-0.30
619.30,-0.31
625.50,-0.33
631.75,-0.34
638.07,-0.35
644.45,-0.37
650.89,-0.38
657.40,-0.39
663.98,-0.41
670.62,-0.42
677.32,-0.43
684.10,-0.44
690.94,-0.45
697.85,-0.46
704.83,-0.47
711.87,-0.48
718.99,-0.48
726.18,-0.49
733.44,-0.49
740.78,-0.49
748.19,-0.50
755.67,-0.50
763.23,-0.50
770.86,-0.51
778.57,-0.51
786.35,-0.51
794.22,-0.50
802.16,-0.50
810.18,-0.50
818.28,-0.49
826.46,-0.49
834.73,-0.48
843.08,-0.47
851.51,-0.46
860.02,-0.44
868.62,-0.43
877.31,-0.41
886.08,-0.39
894.94,-0.37
903.89,-0.35
912.93,-0.32
922.06,-0.30
931.28,-0.27
940.59,-0.24
950.00,-0.21
959.50,-0.17
969.09,-0.13
978.78,-0.09
988.57,-0.05
998.46,-0.01
1008.44,0.04
1018.53,0.09
1028.71,0.14
1039.00,0.20
1049.39,0.25
1059.88,0.31
1070.48,0.37
1081.19,0.44
1092.00,0.50
1102.92,0.57
1113.95,0.64
1125.09,0.72
1136.34,0.79
1147.70,0.87
1159.18,0.96
1170.77,1.04
1182.48,1.13
1194.30,1.21
1206.25,1.30
1218.31,1.39
1230.49,1.47
1242.80,1.56
1255.22,1.65
1267.78,1.73
1280.45,1.81
1293.26,1.88
1306.19,1.96
1319.25,2.03
1332.45,2.10
1345.77,2.16
1359.23,2.23
1372.82,2.29
1386.55,2.35
1400.41,2.40
1414.42,2.45
1428.56,2.50
1442.85,2.55
1457.28,2.60
1471.85,2.65
1486.57,2.70
1501.43,2.74
1516.45,2.79
1531.61,2.84
1546.93,2.88
1562.40,2.93
1578.02,2.98
1593.80,3.03
1609.74,3.09
1625.84,3.15
1642.10,3.22
1658.52,3.30
1675.10,3.38
1691.85,3.45
1708.77,3.53
1725.86,3.61
1743.12,3.68
1760.55,3.75
1778.15,3.82
1795.94,3.88
1813.90,3.95
1832.03,4.01
1850.36,4.07
1868.86,4.12
1887.55,4.18
1906.42,4.24
1925.49,4.29
1944.74,4.35
1964.19,4.40
1983.83,4.46
2003.67,4.51
2023.71,4.57
2043.94,4.63
2064.38,4.68
2085.03,4.74
2105.88,4.79
2126.94,4.85
2148.20,4.90
2169.69,4.95
2191.38,5.00
2213.30,5.05
2235.43,5.09
2257.78,5.13
2280.36,5.17
2303.17,5.21
2326.20,5.24
2349.46,5.27
2372.95,5.29
2396.68,5.32
2420.65,5.33
2444.86,5.34
2469.31,5.35
2494.00,5.35
2518.94,5.35
2544.13,5.35
2569.57,5.34
2595.27,5.33
2621.22,5.32
2647.43,5.30
2673.90,5.29
2700.64,5.27
2727.65,5.24
2754.93,5.22
2782.48,5.19
2810.30,5.16
2838.40,5.12
2866.79,5.09
2895.46,5.05
2924.41,5.01
2953.65,4.97
2983.19,4.93
3013.02,4.89
3043.15,4.85
3073.58,4.82
3104.32,4.78
3135.36,4.75
3166.72,4.72
3198.38,4.68
3230.37,4.65
3262.67,4.62
3295.30,4.59
3328.25,4.56
3361.53,4.54
3395.15,4.51
3429.10,4.49
3463.39,4.46
3498.03,4.44
3533.01,4.43
3568.34,4.41
3604.02,4.39
3640.06,4.38
3676.46,4.36
3713.22,4.33
3750.36,4.30
3787.86,4.25
3825.74,4.20
3864.00,4.13
3902.64,4.03
3941.66,3.93
3981.08,3.82
4020.89,3.69
4061.10,3.55
4101.71,3.43
4142.73,3.34
4184.15,3.26
4226.00,3.25
4268.26,3.26
4310.94,3.30
4354.05,3.36
4397.59,3.42
4441.56,3.48
4485.98,3.52
4530.84,3.55
4576.15,3.54
4621.91,3.52
4668.13,3.47
4714.81,3.40
4761.96,3.32
4809.58,3.23
4857.67,3.12
4906.25,3.01
4955.31,2.90
5004.87,2.80
5054.91,2.70
5105.46,2.62
5156.52,2.55
5208.08,2.50
5260.16,2.46
5312.77,2.43
5365.89,2.40
5419.55,2.38
5473.75,2.36
5528.49,2.32
5583.77,2.28
5639.61,2.22
5696.00,2.15
5752.96,2.07
5810.49,1.98
5868.60,1.88
5927.28,1.78
5986.56,1.68
6046.42,1.58
6106.89,1.49
6167.96,1.41
6229.64,1.35
6291.93,1.30
6354.85,1.28
6418.40,1.27
6482.58,1.28
6547.41,1.32
6612.88,1.38
6679.01,1.47
6745.80,1.59
6813.26,1.74
6881.39,1.91
6950.21,2.13
7019.71,2.38
7089.91,2.67
7160.81,3.00
7232.41,3.37
7304.74,3.79
7377.79,4.24
7451.56,4.72
7526.08,5.20
7601.34,5.69
7677.35,6.18
7754.13,6.65
7831.67,6.98
7909.98,7.21
7989.08,7.26
8068.98,7.08
8149.67,6.78
8231.16,6.35
8313.47,5.84
8396.61,5.32
8480.57,4.78
8565.38,4.27
8651.03,3.77
8737.54,3.30
8824.92,2.86
8913.17,2.43
9002.30,1.99
9092.32,1.74
9183.25,1.51
9275.08,1.29
9367.83,1.06
9461.51,0.74
9556.12,0.49
9651.68,0.27
9748.20,-0.03
9845.68,-0.46
9944.14,-0.96
10043.58,-1.55
10144.02,-2.19
10245.46,-2.88
10347.91,-3.59
10451.39,-4.29
10555.91,-4.95
10661.46,-5.55
10768.08,-6.07
10875.76,-6.50
10984.52,-6.81
11094.36,-7.03
11205.31,-7.15
11317.36,-7.15
11430.53,-7.09
11544.84,-6.94
11660.29,-6.74
11776.89,-6.51
11894.66,-6.22
12013.60,-5.92
12133.74,-5.64
12255.08,-5.36
12377.63,-5.08
12501.41,-4.82
12626.42,-4.57
12752.68,-4.33
12880.21,-4.07
13009.01,-3.81
13139.10,-3.54
13270.49,-3.19
13403.20,-2.82
13537.23,-2.32
13672.60,-1.76
13809.33,-1.15
13947.42,-0.44
14086.90,0.30
14227.77,1.05
14370.04,1.72
14513.74,2.26
14658.88,2.32
14805.47,2.12
14953.52,1.51
15103.06,0.72
15254.09,-0.14
15406.63,-0.81
15560.70,-1.35
15716.30,-1.69
15873.47,-1.96
16032.20,-2.25
16192.52,-2.68
16354.45,-3.40
16517.99,-4.29
16683.17,-5.21
16850.01,-6.11
17018.51,-6.95
17188.69,-7.33
17360.58,-7.36
17534.18,-7.12
17709.53,-6.60
17886.62,-5.94
18065.49,-5.37
18246.14,-5.02
18428.60,-5.76
18612.89,-7.05
18799.02,-8.61
18987.01,-9.99
19176.88,-11.48
19368.65,-12.96
19562.33,-14.52
19757.96,-16.28
19955.54,-18.05
