frequency,raw
20.00,9.29
20.20,9.29
20.40,9.29
20.61,9.28
20.81,9.28
21.02,9.27
21.23,9.25
21.44,9.24
21.66,9.22
21.87,9.20
22.09,9.18
22.31,9.16
22.54,9.14
22.76,9.12
22.99,9.10
23.22,9.08
23.45,9.06
23.69,9.04
23.92,9.02
24.16,9.00
24.40,8.98
24.65,8.96
24.89,8.94
25.14,8.92
25.39,8.91
25.65,8.90
25.91,8.88
26.16,8.87
26.43,8.86
26.69,8.84
26.96,8.82
27.23,8.81
27.50,8.79
27.77,8.77
28.05,8.74
28.33,8.72
28.62,8.69
28.90,8.67
29.19,8.64
29.48,8.61
29.78,8.59
30.08,8.57
30.38,8.55
30.68,8.53
30.99,8.50
31.30,8.48
31.61,8.45
31.93,8.42
32.24,8.39
32.57,8.37
32.89,8.34
33.22,8.32
33.55,8.29
33.89,8.26
34.23,8.22
34.57,8.18
34.92,8.14
35.27,8.09
35.62,8.05
35.97,8.02
36.33,7.98
36.70,7.95
37.06,7.92
37.43,7.89
37.81,7.85
38.19,7.81
38.57,7.77
38.95,7.73
39.34,7.69
39.74,7.65
40.14,7.61
40.54,7.57
40.94,7.52
41.35,7.48
41.76,7.45
42.18,7.41
42.60,7.37
43.03,7.33
43.46,7.29
43.90,7.24
44.33,7.20
44.78,7.16
45.23,7.12
45.68,7.07
46.13,7.03
46.60,6.99
47.06,6.94
47.53,6.90
48.01,6.86
48.49,6.82
48.97,6.77
49.46,6.72
49.96,6.67
50.46,6.64
50.96,6.60
51.47,6.55
51.99,6.48
52.51,6.43
53.03,6.39
53.56,6.36
54.10,6.32
54.64,6.27
55.18,6.21
55.74,6.16
56.29,6.12
56.86,6.07
57.42,6.01
58.00,5.95
58.58,5.90
59.16,5.86
59.76,5.81
60.35,5.76
60.96,5.71
61.57,5.66
62.18,5.60
62.80,5.55
63.43,5.49
64.07,5.44
64.71,5.39
65.35,5.33
66.01,5.27
66.67,5.22
67.33,5.16
68.01,5.10
68.69,5.05
69.37,5.00
70.07,4.94
70.77,4.89
71.48,4.84
72.19,4.79
72.91,4.73
73.64,4.66
74.38,4.60
75.12,4.55
75.87,4.49
76.63,4.43
77.40,4.38
78.17,4.32
78.95,4.26
79.74,4.20
80.54,4.15
81.35,4.10
82.16,4.03
82.98,3.97
83.81,3.91
84.65,3.85
85.50,3.79
86.35,3.73
87.22,3.67
88.09,3.61
88.97,3.54
89.86,3.48
90.76,3.42
91.66,3.36
92.58,3.30
93.51,3.24
94.44,3.18
95.39,3.12
96.34,3.06
97.30,2.99
98.28,2.93
99.26,2.88
100.25,2.82
101.25,2.75
102.27,2.69
103.29,2.63
104.32,2.58
105.37,2.52
106.42,2.46
107.48,2.40
108.56,2.35
109.64,2.29
110.74,2.22
111.85,2.16
112.97,2.10
114.10,2.04
115.24,1.98
116.39,1.92
117.55,1.86
118.73,1.81
119.92,1.74
121.12,1.68
122.33,1.62
123.55,1.57
124.79,1.51
126.03,1.45
127.29,1.39
128.57,1.33
129.85,1.28
131.15,1.22
132.46,1.16
133.79,1.11
135.12,1.06
136.48,1.00
137.84,0.95
139.22,0.90
140.61,0.85
142.02,0.80
143.44,0.74
144.87,0.68
146.32,0.64
147.78,0.59
149.26,0.54
150.75,0.49
152.26,0.44
153.78,0.39
155.32,0.34
156.88,0.30
158.44,0.25
160.03,0.20
161.63,0.16
163.24,0.12
164.88,0.07
166.53,0.03
168.19,-0.01
169.87,-0.04
171.57,-0.09
173.29,-0.13
175.02,-0.17
176.77,-0.20
178.54,-0.25
180.32,-0.30
182.13,-0.31
183.95,-0.34
185.79,-0.38
187.65,-0.41
189.52,-0.45
191.42,-0.48
193.33,-0.51
195.27,-0.54
197.22,-0.57
199.19,-0.60
201.18,-0.63
203.19,-0.66
205.23,-0.68
207.28,-0.70
209.35,-0.73
211.44,-0.74
213.56,-0.76
215.69,-0.78
217.85,-0.79
220.03,-0.80
222.23,-0.81
224.45,-0.82
226.70,-0.82
228.96,-0.83
231.25,-0.84
233.57,-0.85
235.90,-0.86
238.26,-0.86
240.64,-0.87
243.05,-0.89
245.48,-0.90
247.93,-0.91
250.41,-0.92
252.92,-0.94
255.45,-0.95
258.00,-0.96
260.58,-0.97
263.19,-0.98
265.82,-0.98
268.48,-0.99
271.16,-1.00
273.87,-1.00
276.61,-1.01
279.38,-1.01
282.17,-1.01
284.99,-1.02
287.84,-1.02
290.72,-1.02
293.63,-1.02
296.57,-1.01
299.53,-1.00
302.53,-0.99
305.55,-0.98
308.61,-0.96
311.69,-0.95
314.81,-0.93
317.96,-0.93
321.14,-0.92
324.35,-0.92
327.59,-0.92
330.87,-0.91
334.18,-0.91
337.52,-0.90
340.90,-0.90
344.30,-0.90
347.75,-0.89
351.23,-0.89
354.74,-0.89
358.28,-0.89
361.87,-0.89
365.49,-0.88
369.14,-0.88
372.83,-0.88
376.56,-0.88
380.33,-0.87
384.13,-0.87
387.97,-0.86
391.85,-0.86
395.77,-0.86
399.73,-0.85
403.72,-0.85
407.76,-0.85
411.84,-0.84
415.96,-0.84
420.12,-0.84
424.32,-0.84
428.56,-0.83
432.85,-0.83
437.18,-0.83
441.55,-0.82
445.96,-0.82
450.42,-0.81
454.93,-0.81
459.48,-0.81
464.07,-0.80
468.71,-0.80
473.40,-0.80
478.13,-0.80
482.91,-0.79
487.74,-0.79
492.62,-0.79
497.55,-0.79
502.52,-0.79
507.55,-0.78
512.62,-0.78
517.75,-0.78
522.93,-0.78
528.16,-0.78
533.44,-0.78
538.77,-0.78
544.16,-0.78
549.60,-0.78
555.10,-0.78
560.65,-0.78
566.25,-0.78
571.92,-0.78
577.64,-0.78
583.41,-0.78
589.25,-0.78
595.14,-0.78
601.09,-0.78
607.10,-0.77
613.17,-0.77
619.30,-0.77
625.50,-0.77
631.75,-0.77
638.07,-0.77
644.45,-0.77
650.89,-0.77
657.40,-0.77
663.98,-0.77
670.62,-0.77
677.32,-0.77
684.10,-0.77
690.94,-0.77
697.85,-0.77
704.83,-0.77
711.87,-0.77
718.99,-0.76
726.18,-0.76
733.44,-0.76
740.78,-0.75
748.19,-0.75
755.67,-0.74
763.23,-0.73
770.86,-0.72
778.57,-0.72
786.35,-0.71
794.22,-0.70
802.16,-0.69
810.18,-0.68
818.28,-0.66
826.46,-0.65
834.73,-0.63
843.08,-0.62
851.51,-0.60
860.02,-0.57
868.62,-0.55
877.31,-0.53
886.08,-0.50
894.94,-0.47
903.89,-0.44
912.93,-0.41
922.06,-0.38
931.28,-0.34
940.59,-0.30
950.00,-0.26
959.50,-0.21
969.09,-0.16
978.78,-0.11
988.57,-0.06
998.46,-0.01
1008.44,0.05
1018.53,0.11
1028.71,0.17
1039.00,0.24
1049.39,0.30
1059.88,0.37
1070.48,0.44
1081.19,0.51
1092.00,0.58
1102.92,0.66
1113.95,0.73
1125.09,0.81
1136.34,0.88
1147.70,0.95
1159.18,1.03
1170.77,1.10
1182.48,1.17
1194.30,1.24
1206.25,1.31
1218.31,1.38
1230.49,1.44
1242.80,1.50
1255.22,1.56
1267.78,1.62
1280.45,1.68
1293.26,1.73
1306.19,1.78
1319.25,1.83
1332.45,1.87
1345.77,1.91
1359.23,1.95
1372.82,1.99
1386.55,2.02
1400.41,2.05
1414.42,2.09
1428.56,2.12
1442.85,2.14
1457.28,2.17
1471.85,2.20
1486.57,2.22
1501.43,2.24
1516.45,2.27
1531.61,2.29
1546.93,2.31
1562.40,2.33
1578.02,2.35
1593.80,2.37
1609.74,2.39
1625.84,2.42
1642.10,2.44
1658.52,2.46
1675.10,2.48
1691.85,2.51
1708.77,2.53
1725.86,2.56
1743.12,2.58
1760.55,2.61
1778.15,2.64
1795.94,2.67
1813.90,2.69
1832.03,2.72
1850.36,2.76
1868.86,2.78
1887.55,2.81
1906.42,2.85
1925.49,2.88
1944.74,2.91
1964.19,2.94
1983.83,2.98
2003.67,3.02
2023.71,3.05
2043.94,3.10
2064.38,3.14
2085.03,3.19
2105.88,3.23
2126.94,3.28
2148.20,3.33
2169.69,3.38
2191.38,3.43
2213.30,3.48
2235.43,3.53
2257.78,3.58
2280.36,3.63
2303.17,3.68
2326.20,3.73
2349.46,3.77
2372.95,3.82
2396.68,3.86
2420.65,3.91
2444.86,3.95
2469.31,3.99
2494.00,4.03
2518.94,4.07
2544.13,4.11
2569.57,4.16
2595.27,4.20
2621.22,4.25
2647.43,4.29
2673.90,4.34
2700.64,4.38
2727.65,4.42
2754.93,4.45
2782.48,4.49
2810.30,4.52
2838.40,4.55
2866.79,4.58
2895.46,4.61
2924.41,4.64
2953.65,4.67
2983.19,4.69
3013.02,4.71
3043.15,4.73
3073.58,4.74
3104.32,4.75
3135.36,4.75
3166.72,4.75
3198.38,4.75
3230.37,4.75
3262.67,4.75
3295.30,4.74
3328.25,4.74
3361.53,4.73
3395.15,4.73
3429.10,4.71
3463.39,4.70
3498.03,4.68
3533.01,4.67
3568.34,4.65
3604.02,4.63
3640.06,4.61
3676.46,4.59
3713.22,4.57
3750.36,4.55
3787.86,4.54
3825.74,4.52
3864.00,4.51
3902.64,4.50
3941.66,4.49
3981.08,4.48
4020.89,4.48
4061.10,4.47
4101.71,4.47
4142.73,4.46
4184.15,4.46
4226.00,4.45
4268.26,4.45
4310.94,4.44
4354.05,4.44
4397.59,4.44
4441.56,4.43
4485.98,4.43
4530.84,4.43
4576.15,4.44
4621.91,4.44
4668.13,4.45
4714.81,4.46
4761.96,4.47
4809.58,4.48
4857.67,4.49
4906.25,4.50
4955.31,4.50
5004.87,4.51
5054.91,4.50
5105.46,4.48
5156.52,4.46
5208.08,4.43
5260.16,4.39
5312.77,4.35
5365.89,4.30
5419.55,4.25
5473.75,4.20
5528.49,4.14
5583.77,4.08
5639.61,4.01
5696.00,3.94
5752.96,3.86
5810.49,3.78
5868.60,3.69
5927.28,3.58
5986.56,3.47
6046.42,3.34
6106.89,3.20
6167.96,3.05
6229.64,2.88
6291.93,2.69
6354.85,2.49
6418.40,2.30
6482.58,2.13
6547.41,1.99
6612.88,1.89
6679.01,1.84
6745.80,1.83
6813.26,1.84
6881.39,1.89
6950.21,1.96
7019.71,2.04
7089.91,2.15
7160.81,2.28
7232.41,2.43
7304.74,2.62
7377.79,2.83
7451.56,2.96
7526.08,3.07
7601.34,3.21
7677.35,3.39
7754.13,3.57
7831.67,3.67
7909.98,3.72
7989.08,3.72
8068.98,3.61
8149.67,3.44
8231.16,3.19
8313.47,2.87
8396.61,2.52
8480.57,2.10
8565.38,1.62
8651.03,1.36
8737.54,1.56
8824.92,1.37
8913.17,1.47
9002.30,1.71
9092.32,1.70
9183.25,1.40
9275.08,1.03
9367.83,0.86
9461.51,0.81
9556.12,0.79
9651.68,0.79
9748.20,0.77
9845.68,0.69
9944.14,0.55
10043.58,0.34
10144.02,0.08
10245.46,-0.24
10347.91,-0.59
10451.39,-0.95
10555.91,-1.32
10661.46,-1.69
10768.08,-2.06
10875.76,-2.43
10984.52,-2.80
11094.36,-3.17
11205.31,-3.55
11317.36,-3.94
11430.53,-4.33
11544.84,-4.72
11660.29,-5.09
11776.89,-5.44
11894.66,-5.76
12013.60,-6.08
12133.74,-6.37
12255.08,-6.62
12377.63,-6.82
12501.41,-6.96
12626.42,-7.10
12752.68,-7.22
12880.21,-7.29
13009.01,-7.34
13139.10,-7.39
13270.49,-7.38
13403.20,-7.38
13537.23,-7.35
13672.60,-7.27
13809.33,-7.15
13947.42,-7.00
14086.90,-6.83
14227.77,-6.65
14370.04,-6.44
14513.74,-6.18
14658.88,-5.82
14805.47,-5.42
14953.52,-4.92
15103.06,-4.28
15254.09,-3.56
15406.63,-2.59
15560.70,-1.53
15716.30,-0.31
15873.47,0.85
16032.20,1.78
16192.52,1.90
16354.45,1.19
16517.99,-0.02
16683.17,-1.50
16850.01,-2.86
17018.51,-4.11
17188.69,-5.13
17360.58,-6.06
17534.18,-6.93
17709.53,-7.75
17886.62,-8.52
18065.49,-9.25
18246.14,-9.95
18428.60,-10.69
18612.89,-11.40
18799.02,-12.14
18987.01,-12.97
19176.88,-13.99
19368.65,-15.29
19562.33,-16.97
19757.96,-19.13
19955.54,-21.28
