frequency,raw
20.00,3.62
20.20,3.57
20.40,3.52
20.61,3.47
20.81,3.40
21.02,3.33
21.23,3.26
21.44,3.19
21.66,3.13
21.87,3.08
22.09,3.05
22.31,3.03
22.54,3.02
22.76,3.02
22.99,3.03
23.22,3.02
23.45,3.00
23.69,2.97
23.92,2.92
24.16,2.87
24.40,2.83
24.65,2.79
24.89,2.76
25.14,2.76
25.39,2.76
25.65,2.78
25.91,2.80
26.16,2.81
26.43,2.80
26.69,2.79
26.96,2.77
27.23,2.75
27.50,2.74
27.77,2.74
28.05,2.76
28.33,2.80
28.62,2.84
28.90,2.87
29.19,2.89
29.48,2.89
29.78,2.86
30.08,2.82
30.38,2.76
30.68,2.71
30.99,2.67
31.30,2.66
31.61,2.66
31.93,2.67
32.24,2.69
32.57,2.71
32.89,2.71
33.22,2.70
33.55,2.69
33.89,2.68
34.23,2.68
34.57,2.69
34.92,2.70
35.27,2.70
35.62,2.70
35.97,2.70
36.33,2.68
36.70,2.67
37.06,2.65
37.43,2.62
37.81,2.61
38.19,2.60
38.57,2.60
38.95,2.60
39.34,2.60
39.74,2.59
40.14,2.56
40.54,2.54
40.94,2.52
41.35,2.51
41.76,2.51
42.18,2.50
42.60,2.49
43.03,2.49
43.46,2.49
43.90,2.48
44.33,2.46
44.78,2.45
45.23,2.43
45.68,2.42
46.13,2.41
46.60,2.38
47.06,2.35
47.53,2.33
48.01,2.32
48.49,2.31
48.97,2.30
49.46,2.28
49.96,2.26
50.46,2.24
50.96,2.22
51.47,2.20
51.99,2.19
52.51,2.18
53.03,2.16
53.56,2.13
54.10,2.10
54.64,2.08
55.18,2.07
55.74,2.05
56.29,2.02
56.86,2.00
57.42,1.98
58.00,1.96
58.58,1.93
59.16,1.89
59.76,1.86
60.35,1.83
60.96,1.81
61.57,1.80
62.18,1.79
62.80,1.76
63.43,1.74
64.07,1.72
64.71,1.70
65.35,1.67
66.01,1.64
66.67,1.62
67.33,1.61
68.01,1.58
68.69,1.54
69.37,1.51
70.07,1.50
70.77,1.48
71.48,1.46
72.19,1.43
72.91,1.42
73.64,1.39
74.38,1.36
75.12,1.33
75.87,1.31
76.63,1.29
77.40,1.26
78.17,1.23
78.95,1.21
79.74,1.18
80.54,1.16
81.35,1.13
82.16,1.11
82.98,1.09
83.81,1.07
84.65,1.05
85.50,1.02
86.35,0.99
87.22,0.96
88.09,0.93
88.97,0.90
89.86,0.88
90.76,0.86
91.66,0.83
92.58,0.79
93.51,0.79
94.44,0.77
95.39,0.74
96.34,0.72
97.30,0.69
98.28,0.67
99.26,0.65
100.25,0.62
101.25,0.59
102.27,0.56
103.29,0.54
104.32,0.52
105.37,0.50
106.42,0.47
107.48,0.44
108.56,0.42
109.64,0.39
110.74,0.37
111.85,0.32
112.97,0.31
114.10,0.29
115.24,0.26
116.39,0.24
117.55,0.21
118.73,0.18
119.92,0.14
121.12,0.12
122.33,0.11
123.55,0.08
124.79,0.05
126.03,0.02
127.29,-0.01
128.57,-0.04
129.85,-0.06
131.15,-0.09
132.46,-0.12
133.79,-0.16
135.12,-0.18
136.48,-0.21
137.84,-0.23
139.22,-0.26
140.61,-0.29
142.02,-0.32
143.44,-0.35
144.87,-0.38
146.32,-0.40
147.78,-0.43
149.26,-0.46
150.75,-0.49
152.26,-0.51
153.78,-0.54
155.32,-0.57
156.88,-0.60
158.44,-0.63
160.03,-0.65
161.63,-0.67
163.24,-0.70
164.88,-0.74
166.53,-0.75
168.19,-0.77
169.87,-0.81
171.57,-0.83
173.29,-0.86
175.02,-0.89
176.77,-0.91
178.54,-0.93
180.32,-0.96
182.13,-0.97
183.95,-1.00
185.79,-1.03
187.65,-1.05
189.52,-1.08
191.42,-1.10
193.33,-1.13
195.27,-1.16
197.22,-1.19
199.19,-1.23
201.18,-1.27
203.19,-1.29
205.23,-1.33
207.28,-1.36
209.35,-1.38
211.44,-1.36
213.56,-1.34
215.69,-1.33
217.85,-1.32
220.03,-1.34
222.23,-1.35
224.45,-1.36
226.70,-1.37
228.96,-1.39
231.25,-1.40
233.57,-1.41
235.90,-1.42
238.26,-1.44
240.64,-1.45
243.05,-1.45
245.48,-1.46
247.93,-1.47
250.41,-1.49
252.92,-1.50
255.45,-1.51
258.00,-1.52
260.58,-1.53
263.19,-1.54
265.82,-1.55
268.48,-1.55
271.16,-1.57
273.87,-1.57
276.61,-1.58
279.38,-1.58
282.17,-1.58
284.99,-1.59
287.84,-1.60
290.72,-1.60
293.63,-1.60
296.57,-1.61
299.53,-1.62
302.53,-1.62
305.55,-1.63
308.61,-1.64
311.69,-1.64
314.81,-1.64
317.96,-1.64
321.14,-1.64
324.35,-1.64
327.59,-1.64
330.87,-1.63
334.18,-1.64
337.52,-1.64
340.90,-1.64
344.30,-1.65
347.75,-1.65
351.23,-1.64
354.74,-1.64
358.28,-1.63
361.87,-1.63
365.49,-1.64
369.14,-1.64
372.83,-1.64
376.56,-1.64
380.33,-1.64
384.13,-1.64
387.97,-1.63
391.85,-1.64
395.77,-1.64
399.73,-1.63
403.72,-1.61
407.76,-1.59
411.84,-1.57
415.96,-1.55
420.12,-1.53
424.32,-1.51
428.56,-1.48
432.85,-1.45
437.18,-1.43
441.55,-1.41
445.96,-1.38
450.42,-1.36
454.93,-1.34
459.48,-1.31
464.07,-1.29
468.71,-1.26
473.40,-1.23
478.13,-1.21
482.91,-1.19
487.74,-1.16
492.62,-1.13
497.55,-1.11
502.52,-1.08
507.55,-1.05
512.62,-1.02
517.75,-0.98
522.93,-0.95
528.16,-0.92
533.44,-0.90
538.77,-0.87
544.16,-0.83
549.60,-0.79
555.10,-0.75
560.65,-0.71
566.25,-0.66
571.92,-0.62
577.64,-0.58
583.41,-0.54
589.25,-0.49
595.14,-0.46
601.09,-0.42
607.10,-0.37
613.17,-0.32
619.30,-0.27
625.50,-0.22
631.75,-0.18
638.07,-0.14
644.45,-0.09
650.89,-0.04
657.40,0.03
663.98,0.07
670.62,0.10
677.32,0.14
684.10,0.17
690.94,0.21
697.85,0.25
704.83,0.28
711.87,0.31
718.99,0.32
726.18,0.36
733.44,0.40
740.78,0.42
748.19,0.44
755.67,0.45
763.23,0.47
770.86,0.47
778.57,0.48
786.35,0.48
794.22,0.48
802.16,0.47
810.18,0.47
818.28,0.46
826.46,0.45
834.73,0.45
843.08,0.43
851.51,0.40
860.02,0.38
868.62,0.35
877.31,0.32
886.08,0.30
894.94,0.30
903.89,0.27
912.93,0.22
922.06,0.19
931.28,0.16
940.59,0.14
950.00,0.11
959.50,0.09
969.09,0.06
978.78,0.04
988.57,0.02
998.46,0.00
1008.44,-0.01
1018.53,-0.03
1028.71,-0.04
1039.00,-0.05
1049.39,-0.06
1059.88,-0.06
1070.48,-0.06
1081.19,-0.06
1092.00,-0.05
1102.92,-0.04
1113.95,-0.03
1125.09,-0.02
1136.34,-0.01
1147.70,0.01
1159.18,0.03
1170.77,0.05
1182.48,0.07
1194.30,0.10
1206.25,0.12
1218.31,0.15
1230.49,0.18
1242.80,0.21
1255.22,0.24
1267.78,0.27
1280.45,0.30
1293.26,0.34
1306.19,0.38
1319.25,0.42
1332.45,0.45
1345.77,0.49
1359.23,0.53
1372.82,0.57
1386.55,0.61
1400.41,0.64
1414.42,0.70
1428.56,0.76
1442.85,0.81
1457.28,0.85
1471.85,0.89
1486.57,0.95
1501.43,1.01
1516.45,1.06
1531.61,1.12
1546.93,1.19
1562.40,1.26
1578.02,1.32
1593.80,1.38
1609.74,1.45
1625.84,1.52
1642.10,1.59
1658.52,1.67
1675.10,1.74
1691.85,1.80
1708.77,1.87
1725.86,1.94
1743.12,2.00
1760.55,2.06
1778.15,2.11
1795.94,2.16
1813.90,2.21
1832.03,2.25
1850.36,2.29
1868.86,2.31
1887.55,2.34
1906.42,2.36
1925.49,2.38
1944.74,2.39
1964.19,2.40
1983.83,2.41
2003.67,2.43
2023.71,2.45
2043.94,2.47
2064.38,2.49
2085.03,2.51
2105.88,2.55
2126.94,2.59
2148.20,2.64
2169.69,2.70
2191.38,2.76
2213.30,2.84
2235.43,2.91
2257.78,3.00
2280.36,3.09
2303.17,3.20
2326.20,3.31
2349.46,3.43
2372.95,3.56
2396.68,3.69
2420.65,3.82
2444.86,3.96
2469.31,4.10
2494.00,4.25
2518.94,4.40
2544.13,4.55
2569.57,4.69
2595.27,4.84
2621.22,4.99
2647.43,5.13
2673.90,5.27
2700.64,5.40
2727.65,5.52
2754.93,5.64
2782.48,5.74
2810.30,5.84
2838.40,5.92
2866.79,5.99
2895.46,6.06
2924.41,6.11
2953.65,6.16
2983.19,6.18
3013.02,6.20
3043.15,6.23
3073.58,6.23
3104.32,6.22
3135.36,6.21
3166.72,6.19
3198.38,6.16
3230.37,6.12
3262.67,6.08
3295.30,6.04
3328.25,5.99
3361.53,5.93
3395.15,5.88
3429.10,5.81
3463.39,5.75
3498.03,5.68
3533.01,5.61
3568.34,5.54
3604.02,5.47
3640.06,5.39
3676.46,5.32
3713.22,5.24
3750.36,5.13
3787.86,5.09
3825.74,5.05
3864.00,4.99
3902.64,4.96
3941.66,4.94
3981.08,4.93
4020.89,4.91
4061.10,4.88
4101.71,4.85
4142.73,4.81
4184.15,4.77
4226.00,4.72
4268.26,4.66
4310.94,4.60
4354.05,4.54
4397.59,4.47
4441.56,4.39
4485.98,4.32
4530.84,4.22
4576.15,4.11
4621.91,3.99
4668.13,3.88
4714.81,3.75
4761.96,3.61
4809.58,3.46
4857.67,3.33
4906.25,3.20
4955.31,3.08
5004.87,2.96
5054.91,2.87
5105.46,2.81
5156.52,2.77
5208.08,2.76
5260.16,2.80
5312.77,2.87
5365.89,2.98
5419.55,3.12
5473.75,3.28
5528.49,3.45
5583.77,3.64
5639.61,3.85
5696.00,4.06
5752.96,4.30
5810.49,4.54
5868.60,4.76
5927.28,4.94
5986.56,5.06
6046.42,5.05
6106.89,4.95
6167.96,4.78
6229.64,4.56
6291.93,4.35
6354.85,4.15
6418.40,3.98
6482.58,3.86
6547.41,3.75
6612.88,3.63
6679.01,3.56
6745.80,3.49
6813.26,3.43
6881.39,3.38
6950.21,3.37
7019.71,3.38
7089.91,3.41
7160.81,3.47
7232.41,3.56
7304.74,3.67
7377.79,3.82
7451.56,4.00
7526.08,4.21
7601.34,4.43
7677.35,4.71
7754.13,5.01
7831.67,5.32
7909.98,5.60
7989.08,5.86
8068.98,5.93
8149.67,5.82
8231.16,5.47
8313.47,4.75
8396.61,3.89
8480.57,2.88
8565.38,1.95
8651.03,1.11
8737.54,0.38
8824.92,-0.26
8913.17,-0.85
9002.30,-1.44
9092.32,-2.02
9183.25,-2.61
9275.08,-3.21
9367.83,-3.83
9461.51,-4.43
9556.12,-5.04
9651.68,-5.60
9748.20,-6.09
9845.68,-6.67
9944.14,-7.14
10043.58,-7.58
10144.02,-8.06
10245.46,-8.45
10347.91,-8.83
10451.39,-9.18
10555.91,-9.49
10661.46,-9.79
10768.08,-10.07
10875.76,-10.33
10984.52,-10.57
11094.36,-10.79
11205.31,-10.97
11317.36,-11.11
11430.53,-11.25
11544.84,-11.37
11660.29,-11.47
11776.89,-11.54
11894.66,-11.61
12013.60,-11.68
12133.74,-11.70
12255.08,-11.68
12377.63,-11.64
12501.41,-11.60
12626.42,-11.50
12752.68,-11.33
12880.21,-11.06
13009.01,-10.73
13139.10,-10.41
13270.49,-9.96
13403.20,-9.44
13537.23,-8.74
13672.60,-7.93
13809.33,-6.99
13947.42,-5.80
14086.90,-4.41
14227.77,-2.91
14370.04,-1.65
14513.74,-0.82
14658.88,-1.64
14805.47,-2.71
14953.52,-4.21
15103.06,-5.50
15254.09,-6.68
15406.63,-7.21
15560.70,-7.55
15716.30,-7.58
15873.47,-7.27
16032.20,-6.79
16192.52,-5.95
16354.45,-4.89
16517.99,-3.72
16683.17,-2.59
16850.01,-1.99
17018.51,-1.90
17188.69,-3.04
17360.58,-4.54
17534.18,-10.90
17709.53,-36.27
17886.62,-53.94
18065.49,-62.57
18246.14,-59.48
18428.60,-59.60
18612.89,-62.54
18799.02,-65.76
18987.01,-64.91
19176.88,-61.05
19368.65,-53.94
19562.33,-48.34
19757.96,-49.90
19955.54,-51.46
