frequency,raw
20.00,8.04
20.20,8.03
20.40,8.02
20.61,8.00
20.81,7.99
21.02,7.97
21.23,7.96
21.44,7.94
21.66,7.93
21.87,7.92
22.09,7.91
22.31,7.90
22.54,7.89
22.76,7.88
22.99,7.86
23.22,7.85
23.45,7.83
23.69,7.81
23.92,7.79
24.16,7.76
24.40,7.74
24.65,7.72
24.89,7.70
25.14,7.68
25.39,7.66
25.65,7.64
25.91,7.62
26.16,7.61
26.43,7.59
26.69,7.57
26.96,7.55
27.23,7.53
27.50,7.50
27.77,7.48
28.05,7.45
28.33,7.42
28.62,7.39
28.90,7.37
29.19,7.35
29.48,7.33
29.78,7.31
30.08,7.28
30.38,7.26
30.68,7.23
30.99,7.20
31.30,7.17
31.61,7.14
31.93,7.11
32.24,7.09
32.57,7.06
32.89,7.04
33.22,7.01
33.55,6.99
33.89,6.95
34.23,6.92
34.57,6.88
34.92,6.85
35.27,6.82
35.62,6.79
35.97,6.76
36.33,6.73
36.70,6.70
37.06,6.68
37.43,6.65
37.81,6.61
38.19,6.58
38.57,6.54
38.95,6.51
39.34,6.48
39.74,6.44
40.14,6.41
40.54,6.37
40.94,6.34
41.35,6.30
41.76,6.27
42.18,6.23
42.60,6.20
43.03,6.16
43.46,6.12
43.90,6.08
44.33,6.04
44.78,6.01
45.23,5.97
45.68,5.93
46.13,5.89
46.60,5.86
47.06,5.82
47.53,5.79
48.01,5.74
48.49,5.70
48.97,5.66
49.46,5.62
49.96,5.59
50.46,5.54
50.96,5.49
51.47,5.44
51.99,5.41
52.51,5.37
53.03,5.34
53.56,5.29
54.10,5.25
54.64,5.20
55.18,5.16
55.74,5.12
56.29,5.09
56.86,5.05
57.42,5.01
58.00,4.97
58.58,4.91
59.16,4.86
59.76,4.82
60.35,4.78
60.96,4.75
61.57,4.70
62.18,4.65
62.80,4.61
63.43,4.57
64.07,4.53
64.71,4.48
65.35,4.43
66.01,4.39
66.67,4.34
67.33,4.29
68.01,4.25
68.69,4.20
69.37,4.16
70.07,4.11
70.77,4.07
71.48,4.02
72.19,3.97
72.91,3.93
73.64,3.89
74.38,3.84
75.12,3.79
75.87,3.74
76.63,3.70
77.40,3.66
78.17,3.61
78.95,3.57
79.74,3.52
80.54,3.46
81.35,3.41
82.16,3.37
82.98,3.32
83.81,3.28
84.65,3.23
85.50,3.19
86.35,3.15
87.22,3.09
88.09,3.04
88.97,3.00
89.86,2.95
90.76,2.91
91.66,2.86
92.58,2.82
93.51,2.77
94.44,2.72
95.39,2.68
96.34,2.63
97.30,2.59
98.28,2.54
99.26,2.50
100.25,2.45
101.25,2.40
102.27,2.36
103.29,2.31
104.32,2.27
105.37,2.22
106.42,2.17
107.48,2.13
108.56,2.09
109.64,2.05
110.74,2.00
111.85,1.95
112.97,1.91
114.10,1.87
115.24,1.83
116.39,1.78
117.55,1.73
118.73,1.69
119.92,1.66
121.12,1.62
122.33,1.56
123.55,1.52
124.79,1.48
126.03,1.43
127.29,1.39
128.57,1.35
129.85,1.31
131.15,1.27
132.46,1.23
133.79,1.18
135.12,1.14
136.48,1.11
137.84,1.07
139.22,1.03
140.61,0.99
142.02,0.95
143.44,0.91
144.87,0.87
146.32,0.83
147.78,0.79
149.26,0.76
150.75,0.72
152.26,0.68
153.78,0.65
155.32,0.61
156.88,0.57
158.44,0.54
160.03,0.51
161.63,0.46
163.24,0.42
164.88,0.39
166.53,0.36
168.19,0.33
169.87,0.29
171.57,0.26
173.29,0.22
175.02,0.19
176.77,0.16
178.54,0.13
180.32,0.09
182.13,0.06
183.95,0.03
185.79,-0.00
187.65,-0.03
189.52,-0.06
191.42,-0.09
193.33,-0.12
195.27,-0.15
197.22,-0.18
199.19,-0.20
201.18,-0.22
203.19,-0.25
205.23,-0.27
207.28,-0.30
209.35,-0.32
211.44,-0.34
213.56,-0.37
215.69,-0.39
217.85,-0.40
220.03,-0.43
222.23,-0.45
224.45,-0.48
226.70,-0.48
228.96,-0.51
231.25,-0.53
233.57,-0.54
235.90,-0.55
238.26,-0.58
240.64,-0.60
243.05,-0.60
245.48,-0.63
247.93,-0.64
250.41,-0.65
252.92,-0.67
255.45,-0.69
258.00,-0.70
260.58,-0.72
263.19,-0.73
265.82,-0.75
268.48,-0.76
271.16,-0.77
273.87,-0.79
276.61,-0.80
279.38,-0.81
282.17,-0.82
284.99,-0.83
287.84,-0.85
290.72,-0.86
293.63,-0.88
296.57,-0.89
299.53,-0.90
302.53,-0.91
305.55,-0.92
308.61,-0.93
311.69,-0.94
314.81,-0.96
317.96,-0.96
321.14,-0.97
324.35,-0.97
327.59,-0.98
330.87,-0.99
334.18,-1.00
337.52,-1.00
340.90,-1.01
344.30,-1.02
347.75,-1.02
351.23,-1.03
354.74,-1.04
358.28,-1.04
361.87,-1.05
365.49,-1.06
369.14,-1.07
372.83,-1.08
376.56,-1.08
380.33,-1.09
384.13,-1.10
387.97,-1.10
391.85,-1.11
395.77,-1.11
399.73,-1.11
403.72,-1.12
407.76,-1.13
411.84,-1.13
415.96,-1.13
420.12,-1.13
424.32,-1.13
428.56,-1.14
432.85,-1.14
437.18,-1.14
441.55,-1.14
445.96,-1.14
450.42,-1.14
454.93,-1.14
459.48,-1.14
464.07,-1.14
468.71,-1.14
473.40,-1.14
478.13,-1.15
482.91,-1.15
487.74,-1.15
492.62,-1.15
497.55,-1.15
502.52,-1.16
507.55,-1.16
512.62,-1.16
517.75,-1.16
522.93,-1.17
528.16,-1.17
533.44,-1.17
538.77,-1.17
544.16,-1.18
549.60,-1.18
555.10,-1.18
560.65,-1.18
566.25,-1.19
571.92,-1.19
577.64,-1.19
583.41,-1.19
589.25,-1.20
595.14,-1.20
601.09,-1.20
607.10,-1.20
613.17,-1.21
619.30,-1.21
625.50,-1.21
631.75,-1.21
638.07,-1.21
644.45,-1.22
650.89,-1.22
657.40,-1.23
663.98,-1.23
670.62,-1.22
677.32,-1.22
684.10,-1.22
690.94,-1.22
697.85,-1.22
704.83,-1.22
711.87,-1.22
718.99,-1.22
726.18,-1.22
733.44,-1.22
740.78,-1.21
748.19,-1.21
755.67,-1.20
763.23,-1.20
770.86,-1.19
778.57,-1.18
786.35,-1.17
794.22,-1.15
802.16,-1.14
810.18,-1.12
818.28,-1.10
826.46,-1.07
834.73,-1.04
843.08,-1.01
851.51,-0.98
860.02,-0.95
868.62,-0.90
877.31,-0.86
886.08,-0.82
894.94,-0.77
903.89,-0.72
912.93,-0.65
922.06,-0.60
931.28,-0.53
940.59,-0.47
950.00,-0.40
959.50,-0.33
969.09,-0.25
978.78,-0.18
988.57,-0.10
998.46,-0.01
1008.44,0.07
1018.53,0.17
1028.71,0.26
1039.00,0.35
1049.39,0.45
1059.88,0.56
1070.48,0.66
1081.19,0.77
1092.00,0.87
1102.92,0.98
1113.95,1.09
1125.09,1.20
1136.34,1.30
1147.70,1.41
1159.18,1.51
1170.77,1.61
1182.48,1.72
1194.30,1.81
1206.25,1.91
1218.31,2.00
1230.49,2.08
1242.80,2.17
1255.22,2.25
1267.78,2.32
1280.45,2.40
1293.26,2.46
1306.19,2.53
1319.25,2.59
1332.45,2.65
1345.77,2.71
1359.23,2.76
1372.82,2.81
1386.55,2.86
1400.41,2.91
1414.42,2.95
1428.56,3.00
1442.85,3.04
1457.28,3.07
1471.85,3.11
1486.57,3.15
1501.43,3.18
1516.45,3.22
1531.61,3.25
1546.93,3.29
1562.40,3.32
1578.02,3.35
1593.80,3.38
1609.74,3.41
1625.84,3.45
1642.10,3.48
1658.52,3.51
1675.10,3.54
1691.85,3.58
1708.77,3.61
1725.86,3.65
1743.12,3.69
1760.55,3.72
1778.15,3.76
1795.94,3.80
1813.90,3.84
1832.03,3.89
1850.36,3.93
1868.86,3.98
1887.55,4.03
1906.42,4.08
1925.49,4.13
1944.74,4.19
1964.19,4.24
1983.83,4.30
2003.67,4.36
2023.71,4.42
2043.94,4.49
2064.38,4.55
2085.03,4.62
2105.88,4.69
2126.94,4.77
2148.20,4.84
2169.69,4.92
2191.38,5.00
2213.30,5.08
2235.43,5.16
2257.78,5.24
2280.36,5.33
2303.17,5.42
2326.20,5.50
2349.46,5.59
2372.95,5.68
2396.68,5.77
2420.65,5.86
2444.86,5.95
2469.31,6.04
2494.00,6.13
2518.94,6.22
2544.13,6.30
2569.57,6.38
2595.27,6.46
2621.22,6.54
2647.43,6.62
2673.90,6.68
2700.64,6.75
2727.65,6.80
2754.93,6.86
2782.48,6.90
2810.30,6.94
2838.40,6.97
2866.79,6.99
2895.46,7.00
2924.41,7.01
2953.65,7.01
2983.19,6.99
3013.02,6.98
3043.15,6.95
3073.58,6.91
3104.32,6.87
3135.36,6.82
3166.72,6.76
3198.38,6.70
3230.37,6.63
3262.67,6.56
3295.30,6.49
3328.25,6.41
3361.53,6.32
3395.15,6.24
3429.10,6.15
3463.39,6.05
3498.03,5.96
3533.01,5.86
3568.34,5.76
3604.02,5.66
3640.06,5.56
3676.46,5.45
3713.22,5.35
3750.36,5.24
3787.86,5.14
3825.74,5.03
3864.00,4.93
3902.64,4.82
3941.66,4.71
3981.08,4.61
4020.89,4.50
4061.10,4.40
4101.71,4.29
4142.73,4.19
4184.15,4.09
4226.00,3.99
4268.26,3.89
4310.94,3.80
4354.05,3.70
4397.59,3.61
4441.56,3.52
4485.98,3.43
4530.84,3.34
4576.15,3.25
4621.91,3.16
4668.13,3.08
4714.81,3.00
4761.96,2.92
4809.58,2.84
4857.67,2.76
4906.25,2.68
4955.31,2.61
5004.87,2.54
5054.91,2.47
5105.46,2.40
5156.52,2.33
5208.08,2.26
5260.16,2.20
5312.77,2.14
5365.89,2.07
5419.55,2.01
5473.75,1.95
5528.49,1.89
5583.77,1.84
5639.61,1.78
5696.00,1.73
5752.96,1.68
5810.49,1.64
5868.60,1.60
5927.28,1.56
5986.56,1.52
6046.42,1.50
6106.89,1.48
6167.96,1.47
6229.64,1.47
6291.93,1.48
6354.85,1.51
6418.40,1.54
6482.58,1.60
6547.41,1.67
6612.88,1.76
6679.01,1.87
6745.80,2.00
6813.26,2.14
6881.39,2.28
6950.21,2.40
7019.71,2.47
7089.91,2.44
7160.81,2.20
7232.41,1.85
7304.74,1.42
7377.79,1.18
7451.56,1.20
7526.08,1.48
7601.34,2.01
7677.35,2.74
7754.13,3.52
7831.67,4.15
7909.98,4.60
7989.08,4.78
8068.98,4.49
8149.67,3.96
8231.16,3.17
8313.47,2.25
8396.61,1.28
8480.57,0.29
8565.38,-0.69
8651.03,-1.66
8737.54,-2.63
8824.92,-3.05
8913.17,-2.86
9002.30,-2.50
9092.32,-2.96
9183.25,-3.61
9275.08,-4.28
9367.83,-4.82
9461.51,-5.26
9556.12,-5.65
9651.68,-5.99
9748.20,-6.30
9845.68,-6.56
9944.14,-6.77
10043.58,-6.94
10144.02,-7.07
10245.46,-7.16
10347.91,-7.27
10451.39,-7.39
10555.91,-7.54
10661.46,-7.70
10768.08,-7.90
10875.76,-8.13
10984.52,-8.40
11094.36,-8.69
11205.31,-9.02
11317.36,-9.39
11430.53,-9.75
11544.84,-10.09
11660.29,-10.38
11776.89,-10.65
11894.66,-10.75
12013.60,-10.82
12133.74,-10.78
12255.08,-10.66
12377.63,-10.50
12501.41,-10.31
12626.42,-10.16
12752.68,-10.08
12880.21,-10.09
13009.01,-10.14
13139.10,-10.19
13270.49,-10.35
13403.20,-10.53
13537.23,-10.69
13672.60,-10.82
13809.33,-10.91
13947.42,-10.93
14086.90,-10.81
14227.77,-10.61
14370.04,-10.25
14513.74,-9.70
14658.88,-8.85
14805.47,-7.88
14953.52,-6.73
15103.06,-5.82
15254.09,-5.04
15406.63,-5.28
15560.70,-5.50
15716.30,-5.69
15873.47,-5.86
16032.20,-6.18
16192.52,-7.15
16354.45,-8.23
16517.99,-9.33
16683.17,-10.17
16850.01,-10.91
17018.51,-11.60
17188.69,-12.28
17360.58,-13.06
17534.18,-13.91
17709.53,-14.77
17886.62,-15.76
18065.49,-16.92
18246.14,-18.31
18428.60,-20.09
18612.89,-22.43
18799.02,-24.83
18987.01,-26.41
19176.88,-27.48
19368.65,-28.21
19562.33,-28.63
19757.96,-28.78
19955.54,-28.93
