frequency,raw
20.00,5.75
20.20,5.79
20.40,5.84
20.61,5.88
20.81,5.92
21.02,5.96
21.23,5.99
21.44,6.03
21.66,6.07
21.87,6.10
22.09,6.14
22.31,6.17
22.54,6.21
22.76,6.25
22.99,6.28
23.22,6.32
23.45,6.36
23.69,6.40
23.92,6.44
24.16,6.47
24.40,6.50
24.65,6.53
24.89,6.57
25.14,6.60
25.39,6.63
25.65,6.66
25.91,6.70
26.16,6.73
26.43,6.76
26.69,6.78
26.96,6.81
27.23,6.83
27.50,6.85
27.77,6.88
28.05,6.91
28.33,6.94
28.62,6.97
28.90,7.00
29.19,7.03
29.48,7.05
29.78,7.07
30.08,7.09
30.38,7.11
30.68,7.13
30.99,7.16
31.30,7.18
31.61,7.20
31.93,7.22
32.24,7.24
32.57,7.26
32.89,7.28
33.22,7.30
33.55,7.33
33.89,7.35
34.23,7.36
34.57,7.38
34.92,7.39
35.27,7.41
35.62,7.43
35.97,7.45
36.33,7.46
36.70,7.48
37.06,7.49
37.43,7.51
37.81,7.52
38.19,7.53
38.57,7.55
38.95,7.56
39.34,7.57
39.74,7.58
40.14,7.58
40.54,7.59
40.94,7.60
41.35,7.61
41.76,7.63
42.18,7.64
42.60,7.66
43.03,7.67
43.46,7.67
43.90,7.68
44.33,7.68
44.78,7.69
45.23,7.70
45.68,7.70
46.13,7.71
46.60,7.72
47.06,7.72
47.53,7.73
48.01,7.73
48.49,7.73
48.97,7.73
49.46,7.73
49.96,7.74
50.46,7.74
50.96,7.73
51.47,7.72
51.99,7.74
52.51,7.75
53.03,7.77
53.56,7.76
54.10,7.75
54.64,7.74
55.18,7.73
55.74,7.74
56.29,7.74
56.86,7.74
57.42,7.74
58.00,7.74
58.58,7.73
59.16,7.73
59.76,7.72
60.35,7.72
60.96,7.71
61.57,7.71
62.18,7.70
62.80,7.69
63.43,7.68
64.07,7.67
64.71,7.66
65.35,7.65
66.01,7.65
66.67,7.64
67.33,7.63
68.01,7.62
68.69,7.61
69.37,7.60
70.07,7.59
70.77,7.57
71.48,7.56
72.19,7.55
72.91,7.53
73.64,7.52
74.38,7.51
75.12,7.49
75.87,7.47
76.63,7.46
77.40,7.44
78.17,7.43
78.95,7.41
79.74,7.39
80.54,7.38
81.35,7.36
82.16,7.34
82.98,7.32
83.81,7.30
84.65,7.28
85.50,7.26
86.35,7.24
87.22,7.22
88.09,7.20
88.97,7.17
89.86,7.15
90.76,7.13
91.66,7.10
92.58,7.08
93.51,7.06
94.44,7.03
95.39,7.01
96.34,6.98
97.30,6.96
98.28,6.93
99.26,6.91
100.25,6.88
101.25,6.86
102.27,6.83
103.29,6.80
104.32,6.77
105.37,6.74
106.42,6.71
107.48,6.69
108.56,6.66
109.64,6.62
110.74,6.59
111.85,6.56
112.97,6.53
114.10,6.50
115.24,6.46
116.39,6.43
117.55,6.39
118.73,6.36
119.92,6.33
121.12,6.29
122.33,6.26
123.55,6.23
124.79,6.19
126.03,6.16
127.29,6.12
128.57,6.08
129.85,6.04
131.15,6.01
132.46,5.96
133.79,5.92
135.12,5.88
136.48,5.84
137.84,5.80
139.22,5.78
140.61,5.76
142.02,5.74
143.44,5.72
144.87,5.70
146.32,5.66
147.78,5.63
149.26,5.59
150.75,5.55
152.26,5.51
153.78,5.48
155.32,5.44
156.88,5.40
158.44,5.36
160.03,5.32
161.63,5.28
163.24,5.23
164.88,5.19
166.53,5.15
168.19,5.10
169.87,5.06
171.57,5.02
173.29,4.97
175.02,4.93
176.77,4.88
178.54,4.84
180.32,4.79
182.13,4.75
183.95,4.70
185.79,4.66
187.65,4.61
189.52,4.56
191.42,4.52
193.33,4.47
195.27,4.42
197.22,4.38
199.19,4.33
201.18,4.28
203.19,4.24
205.23,4.19
207.28,4.14
209.35,4.09
211.44,4.05
213.56,4.00
215.69,3.95
217.85,3.90
220.03,3.85
222.23,3.80
224.45,3.76
226.70,3.71
228.96,3.66
231.25,3.61
233.57,3.56
235.90,3.51
238.26,3.46
240.64,3.41
243.05,3.36
245.48,3.31
247.93,3.26
250.41,3.21
252.92,3.16
255.45,3.11
258.00,3.06
260.58,3.01
263.19,2.96
265.82,2.91
268.48,2.86
271.16,2.81
273.87,2.76
276.61,2.71
279.38,2.67
282.17,2.62
284.99,2.57
287.84,2.52
290.72,2.47
293.63,2.43
296.57,2.38
299.53,2.33
302.53,2.28
305.55,2.23
308.61,2.19
311.69,2.14
314.81,2.09
317.96,2.04
321.14,1.99
324.35,1.94
327.59,1.90
330.87,1.85
334.18,1.80
337.52,1.75
340.90,1.71
344.30,1.66
347.75,1.61
351.23,1.57
354.74,1.52
358.28,1.47
361.87,1.42
365.49,1.38
369.14,1.33
372.83,1.28
376.56,1.24
380.33,1.19
384.13,1.15
387.97,1.10
391.85,1.06
395.77,1.01
399.73,0.97
403.72,0.92
407.76,0.88
411.84,0.83
415.96,0.79
420.12,0.75
424.32,0.70
428.56,0.66
432.85,0.62
437.18,0.58
441.55,0.53
445.96,0.49
450.42,0.45
454.93,0.41
459.48,0.37
464.07,0.33
468.71,0.29
473.40,0.25
478.13,0.21
482.91,0.18
487.74,0.14
492.62,0.10
497.55,0.07
502.52,0.03
507.55,-0.00
512.62,-0.04
517.75,-0.07
522.93,-0.11
528.16,-0.14
533.44,-0.17
538.77,-0.21
544.16,-0.24
549.60,-0.27
555.10,-0.30
560.65,-0.33
566.25,-0.36
571.92,-0.39
577.64,-0.41
583.41,-0.44
589.25,-0.47
595.14,-0.49
601.09,-0.52
607.10,-0.54
613.17,-0.57
619.30,-0.59
625.50,-0.61
631.75,-0.63
638.07,-0.65
644.45,-0.67
650.89,-0.69
657.40,-0.70
663.98,-0.72
670.62,-0.74
677.32,-0.75
684.10,-0.76
690.94,-0.78
697.85,-0.79
704.83,-0.80
711.87,-0.81
718.99,-0.81
726.18,-0.82
733.44,-0.82
740.78,-0.83
748.19,-0.83
755.67,-0.83
763.23,-0.83
770.86,-0.83
778.57,-0.82
786.35,-0.82
794.22,-0.81
802.16,-0.80
810.18,-0.79
818.28,-0.77
826.46,-0.76
834.73,-0.74
843.08,-0.72
851.51,-0.70
860.02,-0.68
868.62,-0.65
877.31,-0.62
886.08,-0.59
894.94,-0.56
903.89,-0.52
912.93,-0.48
922.06,-0.44
931.28,-0.39
940.59,-0.34
950.00,-0.29
959.50,-0.24
969.09,-0.18
978.78,-0.13
988.57,-0.07
998.46,-0.01
1008.44,0.05
1018.53,0.12
1028.71,0.18
1039.00,0.25
1049.39,0.32
1059.88,0.40
1070.48,0.48
1081.19,0.56
1092.00,0.64
1102.92,0.73
1113.95,0.82
1125.09,0.91
1136.34,1.01
1147.70,1.11
1159.18,1.20
1170.77,1.30
1182.48,1.40
1194.30,1.50
1206.25,1.60
1218.31,1.70
1230.49,1.80
1242.80,1.89
1255.22,1.99
1267.78,2.08
1280.45,2.18
1293.26,2.27
1306.19,2.36
1319.25,2.46
1332.45,2.55
1345.77,2.64
1359.23,2.74
1372.82,2.83
1386.55,2.93
1400.41,3.04
1414.42,3.17
1428.56,3.30
1442.85,3.44
1457.28,3.57
1471.85,3.70
1486.57,3.81
1501.43,3.92
1516.45,4.02
1531.61,4.12
1546.93,4.22
1562.40,4.32
1578.02,4.42
1593.80,4.52
1609.74,4.62
1625.84,4.73
1642.10,4.85
1658.52,4.98
1675.10,5.12
1691.85,5.29
1708.77,5.47
1725.86,5.64
1743.12,5.81
1760.55,5.97
1778.15,6.13
1795.94,6.27
1813.90,6.40
1832.03,6.54
1850.36,6.67
1868.86,6.79
1887.55,6.92
1906.42,7.04
1925.49,7.16
1944.74,7.27
1964.19,7.39
1983.83,7.50
2003.67,7.61
2023.71,7.73
2043.94,7.85
2064.38,7.97
2085.03,8.10
2105.88,8.21
2126.94,8.31
2148.20,8.39
2169.69,8.47
2191.38,8.54
2213.30,8.60
2235.43,8.66
2257.78,8.71
2280.36,8.74
2303.17,8.77
2326.20,8.76
2349.46,8.73
2372.95,8.68
2396.68,8.62
2420.65,8.56
2444.86,8.53
2469.31,8.51
2494.00,8.53
2518.94,8.55
2544.13,8.57
2569.57,8.56
2595.27,8.54
2621.22,8.51
2647.43,8.46
2673.90,8.39
2700.64,8.32
2727.65,8.24
2754.93,8.15
2782.48,8.06
2810.30,7.96
2838.40,7.87
2866.79,7.77
2895.46,7.68
2924.41,7.60
2953.65,7.51
2983.19,7.44
3013.02,7.37
3043.15,7.30
3073.58,7.25
3104.32,7.19
3135.36,7.15
3166.72,7.10
3198.38,7.07
3230.37,7.04
3262.67,7.01
3295.30,7.00
3328.25,6.99
3361.53,6.99
3395.15,7.00
3429.10,7.02
3463.39,7.05
3498.03,7.09
3533.01,7.14
3568.34,7.19
3604.02,7.23
3640.06,7.28
3676.46,7.33
3713.22,7.38
3750.36,7.43
3787.86,7.48
3825.74,7.53
3864.00,7.58
3902.64,7.62
3941.66,7.66
3981.08,7.71
4020.89,7.75
4061.10,7.78
4101.71,7.81
4142.73,7.84
4184.15,7.85
4226.00,7.85
4268.26,7.84
4310.94,7.82
4354.05,7.79
4397.59,7.73
4441.56,7.67
4485.98,7.58
4530.84,7.48
4576.15,7.36
4621.91,7.23
4668.13,7.09
4714.81,6.92
4761.96,6.75
4809.58,6.56
4857.67,6.37
4906.25,6.16
4955.31,5.94
5004.87,5.71
5054.91,5.47
5105.46,5.23
5156.52,4.99
5208.08,4.73
5260.16,4.48
5312.77,4.22
5365.89,3.97
5419.55,3.71
5473.75,3.46
5528.49,3.22
5583.77,2.98
5639.61,2.75
5696.00,2.53
5752.96,2.33
5810.49,2.13
5868.60,1.96
5927.28,1.80
5986.56,1.66
6046.42,1.54
6106.89,1.44
6167.96,1.36
6229.64,1.31
6291.93,1.29
6354.85,1.30
6418.40,1.33
6482.58,1.39
6547.41,1.48
6612.88,1.60
6679.01,1.75
6745.80,1.94
6813.26,2.15
6881.39,2.41
6950.21,2.70
7019.71,3.03
7089.91,3.41
7160.81,3.85
7232.41,4.33
7304.74,4.86
7377.79,5.46
7451.56,6.10
7526.08,6.80
7601.34,7.54
7677.35,8.28
7754.13,9.02
7831.67,9.58
7909.98,9.99
7989.08,10.14
8068.98,9.85
8149.67,9.35
8231.16,8.62
8313.47,7.79
8396.61,6.92
8480.57,6.06
8565.38,5.23
8651.03,4.44
8737.54,3.68
8824.92,2.99
8913.17,2.37
9002.30,1.79
9092.32,1.30
9183.25,0.87
9275.08,0.50
9367.83,0.20
9461.51,-0.03
9556.12,-0.19
9651.68,-0.29
9748.20,-0.33
9845.68,-0.28
9944.14,-0.16
10043.58,0.03
10144.02,0.28
10245.46,0.62
10347.91,1.01
10451.39,1.43
10555.91,1.87
10661.46,2.25
10768.08,2.52
10875.76,2.56
10984.52,2.27
11094.36,1.77
11205.31,1.00
11317.36,0.05
11430.53,-0.93
11544.84,-1.91
11660.29,-2.85
11776.89,-3.76
11894.66,-4.52
12013.60,-5.27
12133.74,-5.93
12255.08,-6.48
12377.63,-6.96
12501.41,-7.35
12626.42,-7.65
12752.68,-7.86
12880.21,-7.94
13009.01,-7.95
13139.10,-7.95
13270.49,-7.77
13403.20,-7.52
13537.23,-7.09
13672.60,-6.58
13809.33,-5.99
13947.42,-5.33
14086.90,-4.75
14227.77,-4.22
14370.04,-3.92
14513.74,-3.89
14658.88,-4.29
14805.47,-4.72
14953.52,-5.23
15103.06,-5.58
15254.09,-5.84
15406.63,-5.65
15560.70,-5.57
15716.30,-5.65
15873.47,-7.19
16032.20,-9.42
16192.52,-12.81
16354.45,-16.23
16517.99,-19.64
16683.17,-22.86
16850.01,-26.01
17018.51,-29.08
17188.69,-31.90
17360.58,-35.33
17534.18,-39.26
17709.53,-43.78
17886.62,-48.93
18065.49,-54.81
18246.14,-61.63
18428.60,-52.46
18612.89,-47.50
18799.02,-45.66
18987.01,-44.40
19176.88,-42.87
19368.65,-42.16
19562.33,-42.23
19757.96,-42.87
19955.54,-43.51
