frequency,raw
20.00,5.71
20.20,5.75
20.40,5.78
20.61,5.82
20.81,5.85
21.02,5.88
21.23,5.91
21.44,5.94
21.66,5.97
21.87,5.99
22.09,6.02
22.31,6.05
22.54,6.07
22.76,6.10
22.99,6.12
23.22,6.14
23.45,6.16
23.69,6.17
23.92,6.19
24.16,6.20
24.40,6.21
24.65,6.23
24.89,6.24
25.14,6.25
25.39,6.27
25.65,6.28
25.91,6.30
26.16,6.32
26.43,6.33
26.69,6.35
26.96,6.36
27.23,6.37
27.50,6.38
27.77,6.39
28.05,6.40
28.33,6.41
28.62,6.42
28.90,6.43
29.19,6.43
29.48,6.44
29.78,6.45
30.08,6.45
30.38,6.46
30.68,6.46
30.99,6.47
31.30,6.47
31.61,6.47
31.93,6.47
32.24,6.47
32.57,6.47
32.89,6.47
33.22,6.47
33.55,6.47
33.89,6.47
34.23,6.47
34.57,6.46
34.92,6.46
35.27,6.46
35.62,6.45
35.97,6.44
36.33,6.44
36.70,6.43
37.06,6.42
37.43,6.42
37.81,6.41
38.19,6.40
38.57,6.39
38.95,6.38
39.34,6.37
39.74,6.36
40.14,6.35
40.54,6.34
40.94,6.32
41.35,6.31
41.76,6.29
42.18,6.28
42.60,6.27
43.03,6.25
43.46,6.23
43.90,6.22
44.33,6.20
44.78,6.18
45.23,6.16
45.68,6.14
46.13,6.12
46.60,6.11
47.06,6.09
47.53,6.07
48.01,6.05
48.49,6.02
48.97,6.00
49.46,5.98
49.96,5.95
50.46,5.93
50.96,5.90
51.47,5.88
51.99,5.85
52.51,5.82
53.03,5.80
53.56,5.77
54.10,5.75
54.64,5.72
55.18,5.69
55.74,5.66
56.29,5.63
56.86,5.60
57.42,5.57
58.00,5.54
58.58,5.51
59.16,5.48
59.76,5.45
60.35,5.42
60.96,5.39
61.57,5.35
62.18,5.32
62.80,5.28
63.43,5.25
64.07,5.22
64.71,5.18
65.35,5.15
66.01,5.11
66.67,5.08
67.33,5.04
68.01,5.00
68.69,4.97
69.37,4.93
70.07,4.89
70.77,4.86
71.48,4.82
72.19,4.78
72.91,4.75
73.64,4.71
74.38,4.67
75.12,4.63
75.87,4.59
76.63,4.55
77.40,4.51
78.17,4.47
78.95,4.43
79.74,4.39
80.54,4.35
81.35,4.31
82.16,4.27
82.98,4.23
83.81,4.19
84.65,4.15
85.50,4.11
86.35,4.07
87.22,4.03
88.09,3.99
88.97,3.95
89.86,3.91
90.76,3.87
91.66,3.83
92.58,3.79
93.51,3.75
94.44,3.71
95.39,3.67
96.34,3.62
97.30,3.58
98.28,3.54
99.26,3.50
100.25,3.46
101.25,3.42
102.27,3.38
103.29,3.34
104.32,3.30
105.37,3.26
106.42,3.23
107.48,3.18
108.56,3.14
109.64,3.10
110.74,3.07
111.85,3.03
112.97,2.99
114.10,2.95
115.24,2.91
116.39,2.88
117.55,2.84
118.73,2.81
119.92,2.77
121.12,2.73
122.33,2.69
123.55,2.66
124.79,2.62
126.03,2.58
127.29,2.55
128.57,2.52
129.85,2.48
131.15,2.45
132.46,2.42
133.79,2.38
135.12,2.35
136.48,2.32
137.84,2.29
139.22,2.25
140.61,2.22
142.02,2.19
143.44,2.16
144.87,2.13
146.32,2.10
147.78,2.07
149.26,2.04
150.75,2.01
152.26,1.98
153.78,1.95
155.32,1.92
156.88,1.89
158.44,1.86
160.03,1.83
161.63,1.81
163.24,1.78
164.88,1.75
166.53,1.73
168.19,1.70
169.87,1.68
171.57,1.65
173.29,1.63
175.02,1.60
176.77,1.58
178.54,1.56
180.32,1.53
182.13,1.51
183.95,1.49
185.79,1.46
187.65,1.44
189.52,1.42
191.42,1.40
193.33,1.39
195.27,1.37
197.22,1.36
199.19,1.35
201.18,1.34
203.19,1.33
205.23,1.32
207.28,1.32
209.35,1.32
211.44,1.31
213.56,1.31
215.69,1.30
217.85,1.29
220.03,1.27
222.23,1.26
224.45,1.25
226.70,1.23
228.96,1.22
231.25,1.21
233.57,1.19
235.90,1.18
238.26,1.16
240.64,1.14
243.05,1.14
245.48,1.12
247.93,1.11
250.41,1.10
252.92,1.09
255.45,1.07
258.00,1.07
260.58,1.05
263.19,1.04
265.82,1.03
268.48,1.02
271.16,1.01
273.87,1.00
276.61,0.99
279.38,0.98
282.17,0.97
284.99,0.96
287.84,0.95
290.72,0.93
293.63,0.92
296.57,0.91
299.53,0.90
302.53,0.89
305.55,0.87
308.61,0.86
311.69,0.85
314.81,0.84
317.96,0.82
321.14,0.81
324.35,0.80
327.59,0.78
330.87,0.77
334.18,0.75
337.52,0.74
340.90,0.73
344.30,0.71
347.75,0.70
351.23,0.69
354.74,0.68
358.28,0.66
361.87,0.65
365.49,0.64
369.14,0.62
372.83,0.61
376.56,0.60
380.33,0.58
384.13,0.57
387.97,0.56
391.85,0.54
395.77,0.53
399.73,0.51
403.72,0.50
407.76,0.48
411.84,0.47
415.96,0.45
420.12,0.44
424.32,0.42
428.56,0.41
432.85,0.39
437.18,0.37
441.55,0.36
445.96,0.35
450.42,0.33
454.93,0.32
459.48,0.31
464.07,0.31
468.71,0.30
473.40,0.30
478.13,0.29
482.91,0.29
487.74,0.28
492.62,0.27
497.55,0.26
502.52,0.24
507.55,0.23
512.62,0.21
517.75,0.20
522.93,0.19
528.16,0.18
533.44,0.17
538.77,0.17
544.16,0.17
549.60,0.16
555.10,0.15
560.65,0.14
566.25,0.13
571.92,0.12
577.64,0.10
583.41,0.08
589.25,0.07
595.14,0.05
601.09,0.03
607.10,0.01
613.17,-0.01
619.30,-0.02
625.50,-0.04
631.75,-0.06
638.07,-0.07
644.45,-0.09
650.89,-0.11
657.40,-0.12
663.98,-0.14
670.62,-0.16
677.32,-0.17
684.10,-0.19
690.94,-0.20
697.85,-0.22
704.83,-0.23
711.87,-0.25
718.99,-0.26
726.18,-0.27
733.44,-0.29
740.78,-0.30
748.19,-0.31
755.67,-0.32
763.23,-0.33
770.86,-0.34
778.57,-0.34
786.35,-0.35
794.22,-0.35
802.16,-0.36
810.18,-0.36
818.28,-0.36
826.46,-0.37
834.73,-0.37
843.08,-0.36
851.51,-0.36
860.02,-0.36
868.62,-0.35
877.31,-0.34
886.08,-0.33
894.94,-0.32
903.89,-0.30
912.93,-0.28
922.06,-0.26
931.28,-0.24
940.59,-0.22
950.00,-0.19
959.50,-0.16
969.09,-0.12
978.78,-0.09
988.57,-0.05
998.46,-0.01
1008.44,0.04
1018.53,0.08
1028.71,0.13
1039.00,0.18
1049.39,0.24
1059.88,0.29
1070.48,0.35
1081.19,0.41
1092.00,0.47
1102.92,0.53
1113.95,0.59
1125.09,0.66
1136.34,0.72
1147.70,0.78
1159.18,0.84
1170.77,0.91
1182.48,0.97
1194.30,1.03
1206.25,1.08
1218.31,1.14
1230.49,1.20
1242.80,1.25
1255.22,1.30
1267.78,1.35
1280.45,1.40
1293.26,1.45
1306.19,1.49
1319.25,1.53
1332.45,1.57
1345.77,1.61
1359.23,1.65
1372.82,1.68
1386.55,1.72
1400.41,1.75
1414.42,1.78
1428.56,1.81
1442.85,1.84
1457.28,1.87
1471.85,1.89
1486.57,1.92
1501.43,1.95
1516.45,1.98
1531.61,2.00
1546.93,2.03
1562.40,2.06
1578.02,2.09
1593.80,2.12
1609.74,2.15
1625.84,2.18
1642.10,2.21
1658.52,2.25
1675.10,2.28
1691.85,2.32
1708.77,2.36
1725.86,2.40
1743.12,2.44
1760.55,2.49
1778.15,2.53
1795.94,2.58
1813.90,2.63
1832.03,2.69
1850.36,2.74
1868.86,2.80
1887.55,2.86
1906.42,2.93
1925.49,2.99
1944.74,3.06
1964.19,3.13
1983.83,3.21
2003.67,3.29
2023.71,3.37
2043.94,3.46
2064.38,3.55
2085.03,3.64
2105.88,3.73
2126.94,3.83
2148.20,3.94
2169.69,4.05
2191.38,4.15
2213.30,4.27
2235.43,4.38
2257.78,4.50
2280.36,4.63
2303.17,4.75
2326.20,4.88
2349.46,5.01
2372.95,5.14
2396.68,5.28
2420.65,5.41
2444.86,5.55
2469.31,5.69
2494.00,5.83
2518.94,5.96
2544.13,6.10
2569.57,6.23
2595.27,6.36
2621.22,6.49
2647.43,6.61
2673.90,6.72
2700.64,6.83
2727.65,6.93
2754.93,7.02
2782.48,7.10
2810.30,7.17
2838.40,7.23
2866.79,7.27
2895.46,7.30
2924.41,7.32
2953.65,7.32
2983.19,7.30
3013.02,7.28
3043.15,7.24
3073.58,7.18
3104.32,7.11
3135.36,7.02
3166.72,6.92
3198.38,6.81
3230.37,6.68
3262.67,6.54
3295.30,6.39
3328.25,6.23
3361.53,6.06
3395.15,5.90
3429.10,5.74
3463.39,5.60
3498.03,5.46
3533.01,5.35
3568.34,5.24
3604.02,5.13
3640.06,5.03
3676.46,4.94
3713.22,4.85
3750.36,4.76
3787.86,4.68
3825.74,4.59
3864.00,4.52
3902.64,4.45
3941.66,4.38
3981.08,4.31
4020.89,4.26
4061.10,4.20
4101.71,4.16
4142.73,4.12
4184.15,4.09
4226.00,4.06
4268.26,4.04
4310.94,4.02
4354.05,4.01
4397.59,4.00
4441.56,4.00
4485.98,4.00
4530.84,4.01
4576.15,4.02
4621.91,4.03
4668.13,4.05
4714.81,4.07
4761.96,4.09
4809.58,4.11
4857.67,4.14
4906.25,4.16
4955.31,4.17
5004.87,4.19
5054.91,4.19
5105.46,4.18
5156.52,4.17
5208.08,4.13
5260.16,4.09
5312.77,4.03
5365.89,3.95
5419.55,3.86
5473.75,3.75
5528.49,3.63
5583.77,3.49
5639.61,3.33
5696.00,3.17
5752.96,3.00
5810.49,2.82
5868.60,2.64
5927.28,2.46
5986.56,2.28
6046.42,2.10
6106.89,1.94
6167.96,1.79
6229.64,1.65
6291.93,1.54
6354.85,1.44
6418.40,1.36
6482.58,1.30
6547.41,1.27
6612.88,1.25
6679.01,1.27
6745.80,1.31
6813.26,1.37
6881.39,1.46
6950.21,1.58
7019.71,1.72
7089.91,1.89
7160.81,2.10
7232.41,2.34
7304.74,2.61
7377.79,2.91
7451.56,3.21
7526.08,3.52
7601.34,3.84
7677.35,4.12
7754.13,4.40
7831.67,4.60
7909.98,4.75
7989.08,4.81
8068.98,4.74
8149.67,4.58
8231.16,4.32
8313.47,3.97
8396.61,3.57
8480.57,3.11
8565.38,2.61
8651.03,2.09
8737.54,1.53
8824.92,0.97
8913.17,0.42
9002.30,-0.13
9092.32,-0.66
9183.25,-1.15
9275.08,-1.62
9367.83,-2.04
9461.51,-2.44
9556.12,-2.80
9651.68,-3.11
9748.20,-3.37
9845.68,-3.55
9944.14,-3.69
10043.58,-3.79
10144.02,-3.87
10245.46,-3.94
10347.91,-4.02
10451.39,-4.10
10555.91,-4.08
10661.46,-3.99
10768.08,-3.84
10875.76,-3.67
10984.52,-3.49
11094.36,-3.34
11205.31,-3.26
11317.36,-3.35
11430.53,-3.47
11544.84,-3.53
11660.29,-3.46
11776.89,-3.32
11894.66,-3.10
12013.60,-2.88
12133.74,-2.71
12255.08,-2.62
12377.63,-2.57
12501.41,-2.57
12626.42,-2.63
12752.68,-2.69
12880.21,-2.75
13009.01,-2.82
13139.10,-2.89
13270.49,-3.01
13403.20,-3.13
13537.23,-3.29
13672.60,-3.45
13809.33,-3.60
13947.42,-3.73
14086.90,-3.84
14227.77,-3.93
14370.04,-4.00
14513.74,-4.06
14658.88,-4.16
14805.47,-4.31
14953.52,-4.53
15103.06,-4.71
15254.09,-4.88
15406.63,-4.92
15560.70,-4.87
15716.30,-4.67
15873.47,-4.32
16032.20,-3.91
16192.52,-3.48
16354.45,-3.13
16517.99,-2.86
16683.17,-2.84
16850.01,-3.06
17018.51,-3.50
17188.69,-4.26
17360.58,-5.15
17534.18,-6.14
17709.53,-7.20
17886.62,-8.22
18065.49,-9.32
18246.14,-10.60
18428.60,-12.12
18612.89,-13.87
18799.02,-15.67
18987.01,-17.24
19176.88,-16.62
19368.65,-16.38
19562.33,-16.99
19757.96,-18.72
19955.54,-20.45
