frequency,raw
20.00,-4.87
20.20,-4.78
20.40,-4.70
20.61,-4.61
20.81,-4.54
21.02,-4.47
21.23,-4.39
21.44,-4.31
21.66,-4.21
21.87,-4.12
22.09,-4.01
22.31,-3.91
22.54,-3.81
22.76,-3.72
22.99,-3.63
23.22,-3.55
23.45,-3.48
23.69,-3.40
23.92,-3.32
24.16,-3.24
24.40,-3.15
24.65,-3.05
24.89,-2.96
25.14,-2.87
25.39,-2.78
25.65,-2.70
25.91,-2.61
26.16,-2.53
26.43,-2.44
26.69,-2.35
26.96,-2.25
27.23,-2.15
27.50,-2.06
27.77,-1.98
28.05,-1.89
28.33,-1.81
28.62,-1.73
28.90,-1.65
29.19,-1.58
29.48,-1.50
29.78,-1.43
30.08,-1.36
30.38,-1.29
30.68,-1.22
30.99,-1.14
31.30,-1.05
31.61,-0.97
31.93,-0.88
32.24,-0.81
32.57,-0.74
32.89,-0.68
33.22,-0.60
33.55,-0.52
33.89,-0.44
34.23,-0.36
34.57,-0.29
34.92,-0.23
35.27,-0.17
35.62,-0.11
35.97,-0.05
36.33,0.02
36.70,0.08
37.06,0.15
37.43,0.22
37.81,0.30
38.19,0.38
38.57,0.46
38.95,0.53
39.34,0.59
39.74,0.66
40.14,0.74
40.54,0.82
40.94,0.89
41.35,0.95
41.76,1.00
42.18,1.04
42.60,1.08
43.03,1.14
43.46,1.20
43.90,1.26
44.33,1.31
44.78,1.37
45.23,1.43
45.68,1.49
46.13,1.56
46.60,1.62
47.06,1.68
47.53,1.73
48.01,1.79
48.49,1.85
48.97,1.93
49.46,2.00
49.96,2.04
50.46,2.07
50.96,2.10
51.47,2.12
51.99,2.12
52.51,2.13
53.03,2.16
53.56,2.28
54.10,2.39
54.64,2.47
55.18,2.49
55.74,2.51
56.29,2.54
56.86,2.59
57.42,2.62
58.00,2.65
58.58,2.70
59.16,2.75
59.76,2.79
60.35,2.83
60.96,2.86
61.57,2.92
62.18,2.98
62.80,3.01
63.43,3.04
64.07,3.07
64.71,3.12
65.35,3.15
66.01,3.18
66.67,3.21
67.33,3.25
68.01,3.28
68.69,3.32
69.37,3.35
70.07,3.37
70.77,3.41
71.48,3.44
72.19,3.45
72.91,3.46
73.64,3.50
74.38,3.56
75.12,3.62
75.87,3.63
76.63,3.63
77.40,3.63
78.17,3.66
78.95,3.69
79.74,3.71
80.54,3.73
81.35,3.75
82.16,3.77
82.98,3.79
83.81,3.81
84.65,3.83
85.50,3.85
86.35,3.86
87.22,3.88
88.09,3.90
88.97,3.91
89.86,3.92
90.76,3.94
91.66,3.95
92.58,3.97
93.51,3.98
94.44,3.98
95.39,3.99
96.34,4.01
97.30,4.02
98.28,4.03
99.26,4.03
100.25,4.04
101.25,4.04
102.27,4.05
103.29,4.06
104.32,4.07
105.37,4.07
106.42,4.07
107.48,4.08
108.56,4.08
109.64,4.09
110.74,4.09
111.85,4.08
112.97,4.08
114.10,4.08
115.24,4.08
116.39,4.08
117.55,4.08
118.73,4.07
119.92,4.07
121.12,4.06
122.33,4.06
123.55,4.05
124.79,4.05
126.03,4.04
127.29,4.04
128.57,4.03
129.85,4.02
131.15,4.01
132.46,4.00
133.79,3.99
135.12,3.98
136.48,3.97
137.84,3.95
139.22,3.94
140.61,3.93
142.02,3.91
143.44,3.89
144.87,3.87
146.32,3.86
147.78,3.84
149.26,3.82
150.75,3.80
152.26,3.77
153.78,3.74
155.32,3.71
156.88,3.68
158.44,3.65
160.03,3.62
161.63,3.61
163.24,3.60
164.88,3.58
166.53,3.58
168.19,3.59
169.87,3.59
171.57,3.58
173.29,3.58
175.02,3.57
176.77,3.56
178.54,3.54
180.32,3.52
182.13,3.50
183.95,3.48
185.79,3.46
187.65,3.44
189.52,3.41
191.42,3.39
193.33,3.37
195.27,3.35
197.22,3.32
199.19,3.30
201.18,3.27
203.19,3.25
205.23,3.22
207.28,3.20
209.35,3.17
211.44,3.14
213.56,3.11
215.69,3.08
217.85,3.05
220.03,3.02
222.23,2.99
224.45,2.97
226.70,2.93
228.96,2.90
231.25,2.87
233.57,2.84
235.90,2.81
238.26,2.79
240.64,2.76
243.05,2.72
245.48,2.68
247.93,2.65
250.41,2.62
252.92,2.58
255.45,2.55
258.00,2.51
260.58,2.48
263.19,2.45
265.82,2.41
268.48,2.38
271.16,2.35
273.87,2.31
276.61,2.28
279.38,2.24
282.17,2.20
284.99,2.17
287.84,2.14
290.72,2.10
293.63,2.07
296.57,2.03
299.53,2.00
302.53,1.96
305.55,1.93
308.61,1.90
311.69,1.86
314.81,1.83
317.96,1.79
321.14,1.76
324.35,1.72
327.59,1.69
330.87,1.65
334.18,1.62
337.52,1.58
340.90,1.54
344.30,1.51
347.75,1.47
351.23,1.44
354.74,1.40
358.28,1.37
361.87,1.33
365.49,1.30
369.14,1.26
372.83,1.23
376.56,1.19
380.33,1.16
384.13,1.12
387.97,1.09
391.85,1.06
395.77,1.03
399.73,0.99
403.72,0.96
407.76,0.93
411.84,0.89
415.96,0.86
420.12,0.82
424.32,0.79
428.56,0.76
432.85,0.73
437.18,0.69
441.55,0.66
445.96,0.63
450.42,0.59
454.93,0.57
459.48,0.53
464.07,0.50
468.71,0.47
473.40,0.44
478.13,0.41
482.91,0.38
487.74,0.35
492.62,0.32
497.55,0.29
502.52,0.26
507.55,0.23
512.62,0.21
517.75,0.18
522.93,0.15
528.16,0.12
533.44,0.09
538.77,0.07
544.16,0.04
549.60,0.01
555.10,-0.01
560.65,-0.04
566.25,-0.06
571.92,-0.09
577.64,-0.11
583.41,-0.14
589.25,-0.16
595.14,-0.19
601.09,-0.22
607.10,-0.23
613.17,-0.26
619.30,-0.28
625.50,-0.30
631.75,-0.32
638.07,-0.34
644.45,-0.36
650.89,-0.38
657.40,-0.40
663.98,-0.41
670.62,-0.43
677.32,-0.45
684.10,-0.46
690.94,-0.48
697.85,-0.49
704.83,-0.50
711.87,-0.52
718.99,-0.52
726.18,-0.54
733.44,-0.55
740.78,-0.56
748.19,-0.57
755.67,-0.58
763.23,-0.58
770.86,-0.59
778.57,-0.59
786.35,-0.59
794.22,-0.59
802.16,-0.59
810.18,-0.59
818.28,-0.59
826.46,-0.58
834.73,-0.57
843.08,-0.56
851.51,-0.55
860.02,-0.54
868.62,-0.52
877.31,-0.50
886.08,-0.48
894.94,-0.45
903.89,-0.42
912.93,-0.40
922.06,-0.37
931.28,-0.33
940.59,-0.29
950.00,-0.25
959.50,-0.21
969.09,-0.16
978.78,-0.12
988.57,-0.06
998.46,-0.01
1008.44,0.05
1018.53,0.11
1028.71,0.18
1039.00,0.25
1049.39,0.31
1059.88,0.38
1070.48,0.46
1081.19,0.53
1092.00,0.61
1102.92,0.69
1113.95,0.78
1125.09,0.86
1136.34,0.94
1147.70,1.03
1159.18,1.11
1170.77,1.20
1182.48,1.29
1194.30,1.37
1206.25,1.46
1218.31,1.54
1230.49,1.62
1242.80,1.70
1255.22,1.79
1267.78,1.87
1280.45,1.95
1293.26,2.02
1306.19,2.10
1319.25,2.18
1332.45,2.25
1345.77,2.32
1359.23,2.39
1372.82,2.46
1386.55,2.53
1400.41,2.60
1414.42,2.67
1428.56,2.74
1442.85,2.80
1457.28,2.87
1471.85,2.93
1486.57,3.00
1501.43,3.07
1516.45,3.13
1531.61,3.20
1546.93,3.26
1562.40,3.33
1578.02,3.41
1593.80,3.48
1609.74,3.57
1625.84,3.65
1642.10,3.74
1658.52,3.83
1675.10,3.92
1691.85,4.01
1708.77,4.10
1725.86,4.19
1743.12,4.27
1760.55,4.36
1778.15,4.45
1795.94,4.54
1813.90,4.63
1832.03,4.72
1850.36,4.81
1868.86,4.91
1887.55,5.00
1906.42,5.10
1925.49,5.20
1944.74,5.29
1964.19,5.39
1983.83,5.49
2003.67,5.58
2023.71,5.68
2043.94,5.77
2064.38,5.87
2085.03,5.96
2105.88,6.06
2126.94,6.15
2148.20,6.24
2169.69,6.34
2191.38,6.43
2213.30,6.52
2235.43,6.62
2257.78,6.71
2280.36,6.80
2303.17,6.89
2326.20,6.98
2349.46,7.06
2372.95,7.15
2396.68,7.24
2420.65,7.32
2444.86,7.40
2469.31,7.48
2494.00,7.56
2518.94,7.63
2544.13,7.71
2569.57,7.78
2595.27,7.85
2621.22,7.91
2647.43,7.97
2673.90,8.03
2700.64,8.08
2727.65,8.13
2754.93,8.19
2782.48,8.24
2810.30,8.29
2838.40,8.34
2866.79,8.40
2895.46,8.45
2924.41,8.51
2953.65,8.57
2983.19,8.64
3013.02,8.71
3043.15,8.78
3073.58,8.85
3104.32,8.91
3135.36,8.97
3166.72,9.02
3198.38,9.08
3230.37,9.12
3262.67,9.16
3295.30,9.20
3328.25,9.23
3361.53,9.25
3395.15,9.26
3429.10,9.27
3463.39,9.27
3498.03,9.26
3533.01,9.25
3568.34,9.22
3604.02,9.20
3640.06,9.16
3676.46,9.13
3713.22,9.09
3750.36,9.05
3787.86,9.02
3825.74,8.98
3864.00,8.93
3902.64,8.89
3941.66,8.84
3981.08,8.79
4020.89,8.74
4061.10,8.70
4101.71,8.65
4142.73,8.61
4184.15,8.57
4226.00,8.52
4268.26,8.46
4310.94,8.40
4354.05,8.34
4397.59,8.26
4441.56,8.19
4485.98,8.10
4530.84,8.02
4576.15,7.93
4621.91,7.84
4668.13,7.74
4714.81,7.63
4761.96,7.53
4809.58,7.42
4857.67,7.31
4906.25,7.19
4955.31,7.08
5004.87,6.96
5054.91,6.85
5105.46,6.73
5156.52,6.60
5208.08,6.48
5260.16,6.36
5312.77,6.24
5365.89,6.11
5419.55,6.00
5473.75,5.88
5528.49,5.77
5583.77,5.66
5639.61,5.55
5696.00,5.45
5752.96,5.36
5810.49,5.27
5868.60,5.18
5927.28,5.11
5986.56,5.04
6046.42,4.98
6106.89,4.93
6167.96,4.88
6229.64,4.84
6291.93,4.81
6354.85,4.78
6418.40,4.75
6482.58,4.73
6547.41,4.71
6612.88,4.71
6679.01,4.72
6745.80,4.74
6813.26,4.78
6881.39,4.85
6950.21,4.95
7019.71,5.08
7089.91,5.25
7160.81,5.48
7232.41,5.75
7304.74,6.06
7377.79,6.43
7451.56,6.84
7526.08,7.28
7601.34,7.75
7677.35,8.21
7754.13,8.67
7831.67,9.02
7909.98,9.27
7989.08,9.37
8068.98,9.20
8149.67,8.88
8231.16,8.39
8313.47,7.76
8396.61,7.08
8480.57,6.35
8565.38,5.61
8651.03,4.86
8737.54,4.12
8824.92,3.40
8913.17,2.72
9002.30,2.06
9092.32,1.44
9183.25,0.86
9275.08,0.32
9367.83,-0.17
9461.51,-0.61
9556.12,-1.02
9651.68,-1.39
9748.20,-1.73
9845.68,-2.05
9944.14,-2.32
10043.58,-2.55
10144.02,-2.77
10245.46,-2.95
10347.91,-3.11
10451.39,-3.25
10555.91,-3.36
10661.46,-3.45
10768.08,-3.51
10875.76,-3.54
10984.52,-3.54
11094.36,-3.51
11205.31,-3.44
11317.36,-3.32
11430.53,-3.17
11544.84,-2.97
11660.29,-2.73
11776.89,-2.46
11894.66,-2.05
12013.60,-1.62
12133.74,-1.08
12255.08,-0.38
12377.63,0.45
12501.41,1.46
12626.42,2.74
12752.68,4.23
12880.21,5.28
13009.01,6.04
13139.10,6.80
13270.49,5.53
13403.20,3.79
13537.23,1.96
13672.60,0.29
13809.33,-1.21
13947.42,-2.45
14086.90,-3.44
14227.77,-4.28
14370.04,-4.99
14513.74,-5.55
14658.88,-5.94
14805.47,-6.26
14953.52,-6.45
15103.06,-6.46
15254.09,-6.39
15406.63,-6.11
15560.70,-5.72
15716.30,-5.17
15873.47,-4.40
16032.20,-3.51
16192.52,-2.43
16354.45,-1.45
16517.99,-0.60
16683.17,-0.53
16850.01,-1.13
17018.51,-2.21
17188.69,-3.61
17360.58,-4.94
17534.18,-6.20
17709.53,-7.27
17886.62,-8.20
18065.49,-9.05
18246.14,-9.85
18428.60,-10.67
18612.89,-11.63
18799.02,-12.88
18987.01,-14.69
19176.88,-16.45
19368.65,-18.84
19562.33,-21.79
19757.96,-25.09
19955.54,-28.39
