frequency,raw
20.00,4.07
20.20,4.09
20.40,4.11
20.61,4.12
20.81,4.13
21.02,4.14
21.23,4.15
21.44,4.17
21.66,4.19
21.87,4.21
22.09,4.25
22.31,4.28
22.54,4.32
22.76,4.35
22.99,4.38
23.22,4.40
23.45,4.41
23.69,4.40
23.92,4.40
24.16,4.39
24.40,4.38
24.65,4.37
24.89,4.38
25.14,4.40
25.39,4.43
25.65,4.46
25.91,4.50
26.16,4.53
26.43,4.55
26.69,4.56
26.96,4.57
27.23,4.58
27.50,4.58
27.77,4.59
28.05,4.60
28.33,4.62
28.62,4.64
28.90,4.66
29.19,4.67
29.48,4.68
29.78,4.68
30.08,4.69
30.38,4.69
30.68,4.69
30.99,4.70
31.30,4.71
31.61,4.72
31.93,4.73
32.24,4.74
32.57,4.74
32.89,4.75
33.22,4.76
33.55,4.77
33.89,4.78
34.23,4.78
34.57,4.79
34.92,4.80
35.27,4.80
35.62,4.81
35.97,4.83
36.33,4.84
36.70,4.84
37.06,4.85
37.43,4.85
37.81,4.86
38.19,4.86
38.57,4.87
38.95,4.87
39.34,4.88
39.74,4.88
40.14,4.88
40.54,4.88
40.94,4.89
41.35,4.90
41.76,4.91
42.18,4.92
42.60,4.92
43.03,4.92
43.46,4.92
43.90,4.93
44.33,4.94
44.78,4.95
45.23,4.96
45.68,4.96
46.13,4.95
46.60,4.94
47.06,4.94
47.53,4.93
48.01,4.92
48.49,4.93
48.97,4.95
49.46,4.98
49.96,5.03
50.46,5.05
50.96,5.05
51.47,5.02
51.99,4.95
52.51,4.90
53.03,4.88
53.56,4.92
54.10,4.96
54.64,5.00
55.18,5.00
55.74,4.99
56.29,4.98
56.86,4.98
57.42,4.97
58.00,4.97
58.58,4.96
59.16,4.96
59.76,4.94
60.35,4.94
60.96,4.94
61.57,4.95
62.18,4.95
62.80,4.94
63.43,4.94
64.07,4.93
64.71,4.92
65.35,4.92
66.01,4.92
66.67,4.91
67.33,4.91
68.01,4.91
68.69,4.91
69.37,4.90
70.07,4.89
70.77,4.89
71.48,4.88
72.19,4.88
72.91,4.87
73.64,4.87
74.38,4.86
75.12,4.86
75.87,4.86
76.63,4.85
77.40,4.84
78.17,4.83
78.95,4.83
79.74,4.82
80.54,4.81
81.35,4.80
82.16,4.80
82.98,4.79
83.81,4.78
84.65,4.77
85.50,4.76
86.35,4.75
87.22,4.74
88.09,4.73
88.97,4.72
89.86,4.71
90.76,4.70
91.66,4.69
92.58,4.68
93.51,4.67
94.44,4.66
95.39,4.65
96.34,4.64
97.30,4.62
98.28,4.61
99.26,4.60
100.25,4.59
101.25,4.57
102.27,4.56
103.29,4.55
104.32,4.53
105.37,4.52
106.42,4.50
107.48,4.49
108.56,4.48
109.64,4.46
110.74,4.45
111.85,4.43
112.97,4.41
114.10,4.40
115.24,4.38
116.39,4.37
117.55,4.35
118.73,4.34
119.92,4.33
121.12,4.31
122.33,4.28
123.55,4.26
124.79,4.24
126.03,4.22
127.29,4.20
128.57,4.19
129.85,4.17
131.15,4.14
132.46,4.12
133.79,4.10
135.12,4.08
136.48,4.06
137.84,4.04
139.22,4.01
140.61,3.99
142.02,3.96
143.44,3.93
144.87,3.91
146.32,3.88
147.78,3.85
149.26,3.82
150.75,3.79
152.26,3.76
153.78,3.72
155.32,3.69
156.88,3.65
158.44,3.63
160.03,3.60
161.63,3.58
163.24,3.56
164.88,3.54
166.53,3.52
168.19,3.51
169.87,3.49
171.57,3.49
173.29,3.49
175.02,3.49
176.77,3.48
178.54,3.46
180.32,3.44
182.13,3.42
183.95,3.40
185.79,3.37
187.65,3.35
189.52,3.32
191.42,3.30
193.33,3.27
195.27,3.24
197.22,3.21
199.19,3.19
201.18,3.16
203.19,3.13
205.23,3.10
207.28,3.07
209.35,3.04
211.44,3.01
213.56,2.98
215.69,2.95
217.85,2.92
220.03,2.89
222.23,2.86
224.45,2.82
226.70,2.79
228.96,2.76
231.25,2.73
233.57,2.69
235.90,2.66
238.26,2.63
240.64,2.60
243.05,2.56
245.48,2.54
247.93,2.50
250.41,2.47
252.92,2.43
255.45,2.40
258.00,2.37
260.58,2.34
263.19,2.30
265.82,2.27
268.48,2.23
271.16,2.20
273.87,2.16
276.61,2.13
279.38,2.10
282.17,2.06
284.99,2.03
287.84,1.99
290.72,1.96
293.63,1.93
296.57,1.89
299.53,1.86
302.53,1.82
305.55,1.79
308.61,1.76
311.69,1.72
314.81,1.69
317.96,1.65
321.14,1.61
324.35,1.58
327.59,1.55
330.87,1.51
334.18,1.48
337.52,1.44
340.90,1.41
344.30,1.37
347.75,1.34
351.23,1.30
354.74,1.27
358.28,1.24
361.87,1.20
365.49,1.17
369.14,1.13
372.83,1.10
376.56,1.07
380.33,1.03
384.13,1.00
387.97,0.96
391.85,0.93
395.77,0.90
399.73,0.86
403.72,0.83
407.76,0.79
411.84,0.76
415.96,0.73
420.12,0.70
424.32,0.67
428.56,0.64
432.85,0.61
437.18,0.58
441.55,0.56
445.96,0.53
450.42,0.50
454.93,0.47
459.48,0.44
464.07,0.41
468.71,0.39
473.40,0.35
478.13,0.32
482.91,0.29
487.74,0.26
492.62,0.24
497.55,0.21
502.52,0.18
507.55,0.15
512.62,0.12
517.75,0.10
522.93,0.07
528.16,0.04
533.44,0.02
538.77,-0.01
544.16,-0.04
549.60,-0.06
555.10,-0.09
560.65,-0.11
566.25,-0.14
571.92,-0.16
577.64,-0.18
583.41,-0.20
589.25,-0.23
595.14,-0.25
601.09,-0.27
607.10,-0.29
613.17,-0.31
619.30,-0.33
625.50,-0.35
631.75,-0.37
638.07,-0.39
644.45,-0.41
650.89,-0.43
657.40,-0.44
663.98,-0.46
670.62,-0.48
677.32,-0.49
684.10,-0.51
690.94,-0.52
697.85,-0.53
704.83,-0.54
711.87,-0.56
718.99,-0.57
726.18,-0.58
733.44,-0.59
740.78,-0.59
748.19,-0.60
755.67,-0.61
763.23,-0.61
770.86,-0.61
778.57,-0.62
786.35,-0.62
794.22,-0.62
802.16,-0.62
810.18,-0.61
818.28,-0.61
826.46,-0.60
834.73,-0.59
843.08,-0.58
851.51,-0.57
860.02,-0.55
868.62,-0.53
877.31,-0.52
886.08,-0.49
894.94,-0.47
903.89,-0.44
912.93,-0.41
922.06,-0.38
931.28,-0.34
940.59,-0.30
950.00,-0.26
959.50,-0.21
969.09,-0.17
978.78,-0.12
988.57,-0.07
998.46,-0.01
1008.44,0.05
1018.53,0.11
1028.71,0.18
1039.00,0.25
1049.39,0.32
1059.88,0.39
1070.48,0.47
1081.19,0.55
1092.00,0.63
1102.92,0.71
1113.95,0.79
1125.09,0.88
1136.34,0.97
1147.70,1.06
1159.18,1.15
1170.77,1.23
1182.48,1.32
1194.30,1.41
1206.25,1.50
1218.31,1.59
1230.49,1.68
1242.80,1.77
1255.22,1.85
1267.78,1.94
1280.45,2.02
1293.26,2.11
1306.19,2.19
1319.25,2.27
1332.45,2.35
1345.77,2.44
1359.23,2.51
1372.82,2.59
1386.55,2.67
1400.41,2.75
1414.42,2.82
1428.56,2.90
1442.85,2.98
1457.28,3.06
1471.85,3.13
1486.57,3.21
1501.43,3.29
1516.45,3.38
1531.61,3.47
1546.93,3.55
1562.40,3.64
1578.02,3.73
1593.80,3.82
1609.74,3.91
1625.84,4.00
1642.10,4.10
1658.52,4.20
1675.10,4.29
1691.85,4.40
1708.77,4.50
1725.86,4.60
1743.12,4.71
1760.55,4.82
1778.15,4.93
1795.94,5.04
1813.90,5.15
1832.03,5.27
1850.36,5.38
1868.86,5.50
1887.55,5.62
1906.42,5.74
1925.49,5.86
1944.74,5.98
1964.19,6.10
1983.83,6.22
2003.67,6.34
2023.71,6.46
2043.94,6.58
2064.38,6.70
2085.03,6.82
2105.88,6.93
2126.94,7.05
2148.20,7.16
2169.69,7.27
2191.38,7.38
2213.30,7.49
2235.43,7.60
2257.78,7.70
2280.36,7.80
2303.17,7.90
2326.20,7.99
2349.46,8.07
2372.95,8.16
2396.68,8.24
2420.65,8.31
2444.86,8.38
2469.31,8.45
2494.00,8.51
2518.94,8.56
2544.13,8.61
2569.57,8.65
2595.27,8.70
2621.22,8.74
2647.43,8.77
2673.90,8.81
2700.64,8.84
2727.65,8.86
2754.93,8.89
2782.48,8.91
2810.30,8.93
2838.40,8.95
2866.79,8.97
2895.46,8.99
2924.41,9.00
2953.65,9.02
2983.19,9.02
3013.02,9.03
3043.15,9.03
3073.58,9.03
3104.32,9.03
3135.36,9.03
3166.72,9.04
3198.38,9.04
3230.37,9.05
3262.67,9.05
3295.30,9.05
3328.25,9.04
3361.53,9.04
3395.15,9.02
3429.10,9.01
3463.39,9.00
3498.03,8.98
3533.01,8.96
3568.34,8.93
3604.02,8.91
3640.06,8.89
3676.46,8.86
3713.22,8.84
3750.36,8.81
3787.86,8.80
3825.74,8.78
3864.00,8.77
3902.64,8.76
3941.66,8.76
3981.08,8.77
4020.89,8.77
4061.10,8.78
4101.71,8.79
4142.73,8.79
4184.15,8.78
4226.00,8.77
4268.26,8.75
4310.94,8.73
4354.05,8.71
4397.59,8.68
4441.56,8.66
4485.98,8.62
4530.84,8.58
4576.15,8.53
4621.91,8.47
4668.13,8.40
4714.81,8.32
4761.96,8.23
4809.58,8.13
4857.67,8.02
4906.25,7.90
4955.31,7.77
5004.87,7.63
5054.91,7.48
5105.46,7.32
5156.52,7.16
5208.08,6.98
5260.16,6.80
5312.77,6.62
5365.89,6.43
5419.55,6.24
5473.75,6.05
5528.49,5.85
5583.77,5.66
5639.61,5.47
5696.00,5.28
5752.96,5.10
5810.49,4.92
5868.60,4.76
5927.28,4.60
5986.56,4.46
6046.42,4.33
6106.89,4.22
6167.96,4.12
6229.64,4.04
6291.93,3.97
6354.85,3.92
6418.40,3.88
6482.58,3.87
6547.41,3.88
6612.88,3.90
6679.01,3.95
6745.80,4.02
6813.26,4.11
6881.39,4.24
6950.21,4.39
7019.71,4.58
7089.91,4.79
7160.81,5.06
7232.41,5.37
7304.74,5.71
7377.79,6.10
7451.56,6.53
7526.08,7.00
7601.34,7.52
7677.35,8.06
7754.13,8.60
7831.67,9.09
7909.98,9.50
7989.08,9.78
8068.98,9.71
8149.67,9.44
8231.16,8.89
8313.47,8.14
8396.61,7.31
8480.57,6.41
8565.38,5.51
8651.03,4.62
8737.54,3.76
8824.92,2.94
8913.17,2.19
9002.30,1.46
9092.32,0.81
9183.25,0.21
9275.08,-0.35
9367.83,-0.86
9461.51,-1.33
9556.12,-1.76
9651.68,-2.14
9748.20,-2.49
9845.68,-2.80
9944.14,-3.08
10043.58,-3.32
10144.02,-3.52
10245.46,-3.69
10347.91,-3.83
10451.39,-3.95
10555.91,-4.03
10661.46,-4.08
10768.08,-4.09
10875.76,-4.08
10984.52,-4.02
11094.36,-3.93
11205.31,-3.80
11317.36,-3.60
11430.53,-3.36
11544.84,-3.04
11660.29,-2.67
11776.89,-2.24
11894.66,-1.63
12013.60,-1.00
12133.74,-0.21
12255.08,0.80
12377.63,1.99
12501.41,3.36
12626.42,4.83
12752.68,5.93
12880.21,5.49
13009.01,4.18
13139.10,2.87
13270.49,1.00
13403.20,-0.84
13537.23,-2.31
13672.60,-3.61
13809.33,-4.76
13947.42,-5.66
14086.90,-6.41
14227.77,-7.06
14370.04,-7.59
14513.74,-7.98
14658.88,-8.20
14805.47,-8.34
14953.52,-8.34
15103.06,-8.17
15254.09,-7.93
15406.63,-7.44
15560.70,-6.80
15716.30,-5.95
15873.47,-4.81
16032.20,-3.53
16192.52,-2.03
16354.45,-0.86
16517.99,-0.08
16683.17,-0.91
16850.01,-2.29
17018.51,-4.03
17188.69,-5.63
17360.58,-7.01
17534.18,-8.22
17709.53,-9.20
17886.62,-10.00
18065.49,-10.70
18246.14,-11.33
18428.60,-12.06
18612.89,-12.96
18799.02,-14.09
18987.01,-15.54
19176.88,-17.48
19368.65,-19.75
19562.33,-22.30
19757.96,-25.08
19955.54,-27.85
