frequency,raw
20.00,1.96
20.20,2.03
20.40,2.09
20.61,2.16
20.81,2.22
21.02,2.29
21.23,2.36
21.44,2.43
21.66,2.52
21.87,2.60
22.09,2.68
22.31,2.76
22.54,2.83
22.76,2.89
22.99,2.94
23.22,2.99
23.45,3.04
23.69,3.09
23.92,3.15
24.16,3.21
24.40,3.27
24.65,3.34
24.89,3.40
25.14,3.45
25.39,3.49
25.65,3.53
25.91,3.58
26.16,3.64
26.43,3.72
26.69,3.81
26.96,3.90
27.23,4.00
27.50,4.07
27.77,4.11
28.05,4.14
28.33,4.14
28.62,4.15
28.90,4.16
29.19,4.19
29.48,4.24
29.78,4.28
30.08,4.31
30.38,4.33
30.68,4.33
30.99,4.35
31.30,4.38
31.61,4.45
31.93,4.55
32.24,4.65
32.57,4.75
32.89,4.82
33.22,4.86
33.55,4.88
33.89,4.88
34.23,4.89
34.57,4.90
34.92,4.93
35.27,4.97
35.62,5.01
35.97,5.05
36.33,5.09
36.70,5.13
37.06,5.16
37.43,5.17
37.81,5.18
38.19,5.19
38.57,5.21
38.95,5.24
39.34,5.27
39.74,5.31
40.14,5.35
40.54,5.38
40.94,5.39
41.35,5.40
41.76,5.41
42.18,5.45
42.60,5.48
43.03,5.52
43.46,5.54
43.90,5.55
44.33,5.56
44.78,5.57
45.23,5.58
45.68,5.59
46.13,5.60
46.60,5.60
47.06,5.61
47.53,5.62
48.01,5.63
48.49,5.63
48.97,5.63
49.46,5.64
49.96,5.67
50.46,5.68
50.96,5.69
51.47,5.69
51.99,5.67
52.51,5.67
53.03,5.67
53.56,5.70
54.10,5.73
54.64,5.75
55.18,5.75
55.74,5.73
56.29,5.72
56.86,5.71
57.42,5.68
58.00,5.65
58.58,5.71
59.16,5.75
59.76,5.76
60.35,5.73
60.96,5.69
61.57,5.69
62.18,5.70
62.80,5.67
63.43,5.66
64.07,5.66
64.71,5.66
65.35,5.64
66.01,5.63
66.67,5.64
67.33,5.64
68.01,5.62
68.69,5.61
69.37,5.59
70.07,5.58
70.77,5.57
71.48,5.55
72.19,5.53
72.91,5.51
73.64,5.51
74.38,5.50
75.12,5.48
75.87,5.47
76.63,5.45
77.40,5.43
78.17,5.40
78.95,5.37
79.74,5.36
80.54,5.34
81.35,5.31
82.16,5.30
82.98,5.29
83.81,5.26
84.65,5.24
85.50,5.21
86.35,5.19
87.22,5.17
88.09,5.14
88.97,5.12
89.86,5.10
90.76,5.07
91.66,5.04
92.58,5.01
93.51,4.99
94.44,4.96
95.39,4.93
96.34,4.91
97.30,4.88
98.28,4.85
99.26,4.82
100.25,4.79
101.25,4.76
102.27,4.72
103.29,4.69
104.32,4.66
105.37,4.63
106.42,4.60
107.48,4.56
108.56,4.53
109.64,4.50
110.74,4.47
111.85,4.43
112.97,4.39
114.10,4.36
115.24,4.32
116.39,4.28
117.55,4.25
118.73,4.21
119.92,4.17
121.12,4.14
122.33,4.13
123.55,4.09
124.79,4.05
126.03,4.01
127.29,3.97
128.57,3.94
129.85,3.90
131.15,3.86
132.46,3.83
133.79,3.79
135.12,3.75
136.48,3.71
137.84,3.68
139.22,3.64
140.61,3.59
142.02,3.56
143.44,3.52
144.87,3.48
146.32,3.44
147.78,3.40
149.26,3.36
150.75,3.32
152.26,3.28
153.78,3.24
155.32,3.20
156.88,3.16
158.44,3.12
160.03,3.07
161.63,3.03
163.24,2.99
164.88,2.96
166.53,2.91
168.19,2.87
169.87,2.83
171.57,2.79
173.29,2.75
175.02,2.71
176.77,2.68
178.54,2.64
180.32,2.60
182.13,2.59
183.95,2.57
185.79,2.54
187.65,2.51
189.52,2.48
191.42,2.44
193.33,2.41
195.27,2.37
197.22,2.33
199.19,2.29
201.18,2.25
203.19,2.21
205.23,2.17
207.28,2.12
209.35,2.08
211.44,2.04
213.56,2.00
215.69,1.96
217.85,1.92
220.03,1.88
222.23,1.85
224.45,1.81
226.70,1.77
228.96,1.74
231.25,1.71
233.57,1.68
235.90,1.65
238.26,1.62
240.64,1.59
243.05,1.58
245.48,1.55
247.93,1.52
250.41,1.49
252.92,1.46
255.45,1.42
258.00,1.39
260.58,1.36
263.19,1.32
265.82,1.29
268.48,1.25
271.16,1.22
273.87,1.19
276.61,1.15
279.38,1.12
282.17,1.08
284.99,1.05
287.84,1.02
290.72,0.98
293.63,0.94
296.57,0.91
299.53,0.89
302.53,0.85
305.55,0.82
308.61,0.79
311.69,0.76
314.81,0.73
317.96,0.70
321.14,0.67
324.35,0.64
327.59,0.61
330.87,0.58
334.18,0.56
337.52,0.53
340.90,0.50
344.30,0.47
347.75,0.45
351.23,0.42
354.74,0.39
358.28,0.36
361.87,0.33
365.49,0.31
369.14,0.28
372.83,0.25
376.56,0.23
380.33,0.20
384.13,0.18
387.97,0.15
391.85,0.13
395.77,0.10
399.73,0.07
403.72,0.05
407.76,0.03
411.84,0.01
415.96,-0.02
420.12,-0.04
424.32,-0.06
428.56,-0.08
432.85,-0.11
437.18,-0.13
441.55,-0.15
445.96,-0.17
450.42,-0.20
454.93,-0.22
459.48,-0.24
464.07,-0.26
468.71,-0.28
473.40,-0.31
478.13,-0.32
482.91,-0.34
487.74,-0.36
492.62,-0.38
497.55,-0.40
502.52,-0.41
507.55,-0.43
512.62,-0.45
517.75,-0.47
522.93,-0.49
528.16,-0.50
533.44,-0.52
538.77,-0.53
544.16,-0.55
549.60,-0.57
555.10,-0.58
560.65,-0.59
566.25,-0.61
571.92,-0.62
577.64,-0.63
583.41,-0.65
589.25,-0.66
595.14,-0.67
601.09,-0.69
607.10,-0.70
613.17,-0.72
619.30,-0.73
625.50,-0.74
631.75,-0.75
638.07,-0.75
644.45,-0.76
650.89,-0.77
657.40,-0.78
663.98,-0.79
670.62,-0.80
677.32,-0.80
684.10,-0.81
690.94,-0.81
697.85,-0.82
704.83,-0.82
711.87,-0.82
718.99,-0.81
726.18,-0.82
733.44,-0.82
740.78,-0.82
748.19,-0.82
755.67,-0.82
763.23,-0.81
770.86,-0.81
778.57,-0.80
786.35,-0.80
794.22,-0.79
802.16,-0.77
810.18,-0.76
818.28,-0.75
826.46,-0.73
834.73,-0.72
843.08,-0.69
851.51,-0.67
860.02,-0.65
868.62,-0.63
877.31,-0.60
886.08,-0.57
894.94,-0.53
903.89,-0.50
912.93,-0.47
922.06,-0.43
931.28,-0.39
940.59,-0.35
950.00,-0.29
959.50,-0.24
969.09,-0.19
978.78,-0.13
988.57,-0.08
998.46,-0.01
1008.44,0.05
1018.53,0.12
1028.71,0.19
1039.00,0.26
1049.39,0.34
1059.88,0.41
1070.48,0.49
1081.19,0.57
1092.00,0.66
1102.92,0.74
1113.95,0.82
1125.09,0.91
1136.34,1.00
1147.70,1.09
1159.18,1.18
1170.77,1.26
1182.48,1.35
1194.30,1.44
1206.25,1.53
1218.31,1.61
1230.49,1.69
1242.80,1.78
1255.22,1.86
1267.78,1.94
1280.45,2.02
1293.26,2.09
1306.19,2.17
1319.25,2.24
1332.45,2.31
1345.77,2.39
1359.23,2.46
1372.82,2.52
1386.55,2.59
1400.41,2.66
1414.42,2.72
1428.56,2.78
1442.85,2.84
1457.28,2.90
1471.85,2.96
1486.57,3.02
1501.43,3.08
1516.45,3.14
1531.61,3.20
1546.93,3.25
1562.40,3.31
1578.02,3.37
1593.80,3.42
1609.74,3.48
1625.84,3.54
1642.10,3.59
1658.52,3.65
1675.10,3.71
1691.85,3.76
1708.77,3.82
1725.86,3.88
1743.12,3.94
1760.55,3.99
1778.15,4.05
1795.94,4.11
1813.90,4.17
1832.03,4.24
1850.36,4.30
1868.86,4.36
1887.55,4.42
1906.42,4.48
1925.49,4.54
1944.74,4.60
1964.19,4.67
1983.83,4.73
2003.67,4.79
2023.71,4.85
2043.94,4.91
2064.38,4.97
2085.03,5.03
2105.88,5.10
2126.94,5.16
2148.20,5.21
2169.69,5.27
2191.38,5.33
2213.30,5.39
2235.43,5.44
2257.78,5.50
2280.36,5.55
2303.17,5.60
2326.20,5.65
2349.46,5.70
2372.95,5.75
2396.68,5.79
2420.65,5.83
2444.86,5.87
2469.31,5.91
2494.00,5.95
2518.94,5.99
2544.13,6.02
2569.57,6.05
2595.27,6.08
2621.22,6.10
2647.43,6.13
2673.90,6.15
2700.64,6.16
2727.65,6.18
2754.93,6.20
2782.48,6.22
2810.30,6.23
2838.40,6.26
2866.79,6.28
2895.46,6.31
2924.41,6.34
2953.65,6.38
2983.19,6.41
3013.02,6.45
3043.15,6.49
3073.58,6.53
3104.32,6.56
3135.36,6.60
3166.72,6.63
3198.38,6.66
3230.37,6.69
3262.67,6.72
3295.30,6.75
3328.25,6.77
3361.53,6.80
3395.15,6.83
3429.10,6.85
3463.39,6.88
3498.03,6.90
3533.01,6.91
3568.34,6.93
3604.02,6.95
3640.06,6.96
3676.46,6.97
3713.22,6.98
3750.36,6.99
3787.86,7.00
3825.74,7.01
3864.00,7.02
3902.64,7.03
3941.66,7.04
3981.08,7.05
4020.89,7.05
4061.10,7.05
4101.71,7.05
4142.73,7.04
4184.15,7.03
4226.00,7.02
4268.26,6.99
4310.94,6.97
4354.05,6.93
4397.59,6.89
4441.56,6.85
4485.98,6.81
4530.84,6.76
4576.15,6.72
4621.91,6.69
4668.13,6.67
4714.81,6.65
4761.96,6.63
4809.58,6.61
4857.67,6.59
4906.25,6.57
4955.31,6.54
5004.87,6.51
5054.91,6.47
5105.46,6.43
5156.52,6.39
5208.08,6.34
5260.16,6.29
5312.77,6.24
5365.89,6.18
5419.55,6.12
5473.75,6.06
5528.49,5.99
5583.77,5.93
5639.61,5.87
5696.00,5.81
5752.96,5.75
5810.49,5.69
5868.60,5.64
5927.28,5.58
5986.56,5.53
6046.42,5.48
6106.89,5.44
6167.96,5.41
6229.64,5.38
6291.93,5.35
6354.85,5.34
6418.40,5.34
6482.58,5.35
6547.41,5.37
6612.88,5.39
6679.01,5.43
6745.80,5.47
6813.26,5.51
6881.39,5.57
6950.21,5.62
7019.71,5.68
7089.91,5.73
7160.81,5.81
7232.41,5.91
7304.74,6.03
7377.79,6.19
7451.56,6.40
7526.08,6.64
7601.34,6.92
7677.35,7.24
7754.13,7.58
7831.67,7.91
7909.98,8.21
7989.08,8.44
8068.98,8.50
8149.67,8.43
8231.16,8.19
8313.47,7.76
8396.61,7.23
8480.57,6.58
8565.38,5.85
8651.03,5.08
8737.54,4.28
8824.92,3.46
8913.17,2.65
9002.30,1.84
9092.32,1.06
9183.25,0.31
9275.08,-0.42
9367.83,-1.11
9461.51,-1.76
9556.12,-2.38
9651.68,-2.99
9748.20,-3.57
9845.68,-4.10
9944.14,-4.61
10043.58,-5.07
10144.02,-5.50
10245.46,-5.83
10347.91,-6.07
10451.39,-6.20
10555.91,-6.07
10661.46,-5.72
10768.08,-5.18
10875.76,-4.39
10984.52,-3.48
11094.36,-2.55
11205.31,-1.65
11317.36,-0.94
11430.53,-0.32
11544.84,0.11
11660.29,0.43
11776.89,0.73
11894.66,1.06
12013.60,1.40
12133.74,1.83
12255.08,2.40
12377.63,3.08
12501.41,3.90
12626.42,4.96
12752.68,6.24
12880.21,7.62
13009.01,9.03
13139.10,10.44
13270.49,10.31
13403.20,9.51
13537.23,7.72
13672.60,5.97
13809.33,4.26
13947.42,2.82
14086.90,1.60
14227.77,0.51
14370.04,-0.43
14513.74,-1.21
14658.88,-1.80
14805.47,-2.30
14953.52,-2.69
15103.06,-2.93
15254.09,-3.10
15406.63,-3.10
15560.70,-3.01
15716.30,-2.81
15873.47,-2.41
16032.20,-1.91
16192.52,-1.24
16354.45,-0.45
16517.99,0.39
16683.17,1.09
16850.01,1.36
17018.51,1.23
17188.69,0.17
17360.58,-1.25
17534.18,-2.91
17709.53,-4.65
17886.62,-6.22
18065.49,-7.62
18246.14,-8.84
18428.60,-9.97
18612.89,-11.35
18799.02,-13.09
18987.01,-15.35
19176.88,-16.38
19368.65,-17.20
19562.33,-18.17
19757.96,-19.59
19955.54,-21.02
