frequency,raw
20.00,8.85
20.20,8.83
20.40,8.81
20.61,8.80
20.81,8.78
21.02,8.76
21.23,8.74
21.44,8.73
21.66,8.71
21.87,8.70
22.09,8.69
22.31,8.67
22.54,8.66
22.76,8.64
22.99,8.63
23.22,8.61
23.45,8.60
23.69,8.58
23.92,8.56
24.16,8.55
24.40,8.53
24.65,8.51
24.89,8.49
25.14,8.47
25.39,8.44
25.65,8.42
25.91,8.40
26.16,8.38
26.43,8.36
26.69,8.34
26.96,8.32
27.23,8.30
27.50,8.28
27.77,8.26
28.05,8.25
28.33,8.23
28.62,8.21
28.90,8.18
29.19,8.15
29.48,8.11
29.78,8.07
30.08,8.03
30.38,7.99
30.68,7.96
30.99,7.95
31.30,7.93
31.61,7.92
31.93,7.91
32.24,7.89
32.57,7.87
32.89,7.84
33.22,7.81
33.55,7.78
33.89,7.74
34.23,7.70
34.57,7.66
34.92,7.63
35.27,7.60
35.62,7.58
35.97,7.56
36.33,7.53
36.70,7.51
37.06,7.48
37.43,7.44
37.81,7.41
38.19,7.37
38.57,7.34
38.95,7.31
39.34,7.28
39.74,7.25
40.14,7.22
40.54,7.19
40.94,7.15
41.35,7.12
41.76,7.08
42.18,7.04
42.60,7.00
43.03,6.97
43.46,6.94
43.90,6.91
44.33,6.87
44.78,6.83
45.23,6.80
45.68,6.76
46.13,6.72
46.60,6.68
47.06,6.65
47.53,6.61
48.01,6.58
48.49,6.54
48.97,6.51
49.46,6.47
49.96,6.43
50.46,6.40
50.96,6.36
51.47,6.33
51.99,6.29
52.51,6.25
53.03,6.21
53.56,6.17
54.10,6.14
54.64,6.10
55.18,6.06
55.74,6.02
56.29,5.98
56.86,5.95
57.42,5.91
58.00,5.87
58.58,5.85
59.16,5.84
59.76,5.84
60.35,5.81
60.96,5.75
61.57,5.68
62.18,5.64
62.80,5.61
63.43,5.57
64.07,5.54
64.71,5.50
65.35,5.46
66.01,5.42
66.67,5.38
67.33,5.35
68.01,5.31
68.69,5.27
69.37,5.23
70.07,5.19
70.77,5.15
71.48,5.11
72.19,5.07
72.91,5.03
73.64,4.99
74.38,4.96
75.12,4.92
75.87,4.88
76.63,4.84
77.40,4.80
78.17,4.76
78.95,4.73
79.74,4.69
80.54,4.65
81.35,4.61
82.16,4.58
82.98,4.54
83.81,4.50
84.65,4.46
85.50,4.42
86.35,4.39
87.22,4.35
88.09,4.31
88.97,4.27
89.86,4.23
90.76,4.20
91.66,4.16
92.58,4.12
93.51,4.08
94.44,4.05
95.39,4.02
96.34,3.99
97.30,3.94
98.28,3.92
99.26,3.89
100.25,3.86
101.25,3.82
102.27,3.79
103.29,3.76
104.32,3.73
105.37,3.69
106.42,3.65
107.48,3.62
108.56,3.59
109.64,3.55
110.74,3.52
111.85,3.49
112.97,3.46
114.10,3.42
115.24,3.39
116.39,3.36
117.55,3.32
118.73,3.28
119.92,3.26
121.12,3.24
122.33,3.21
123.55,3.17
124.79,3.14
126.03,3.11
127.29,3.07
128.57,3.04
129.85,3.01
131.15,2.98
132.46,2.95
133.79,2.92
135.12,2.89
136.48,2.86
137.84,2.82
139.22,2.79
140.61,2.76
142.02,2.73
143.44,2.70
144.87,2.67
146.32,2.65
147.78,2.62
149.26,2.59
150.75,2.56
152.26,2.53
153.78,2.50
155.32,2.47
156.88,2.44
158.44,2.41
160.03,2.38
161.63,2.35
163.24,2.32
164.88,2.29
166.53,2.26
168.19,2.23
169.87,2.20
171.57,2.17
173.29,2.14
175.02,2.11
176.77,2.08
178.54,2.05
180.32,2.02
182.13,1.99
183.95,1.97
185.79,1.94
187.65,1.92
189.52,1.90
191.42,1.89
193.33,1.89
195.27,1.88
197.22,1.89
199.19,1.89
201.18,1.89
203.19,1.88
205.23,1.87
207.28,1.86
209.35,1.85
211.44,1.83
213.56,1.81
215.69,1.79
217.85,1.76
220.03,1.74
222.23,1.71
224.45,1.69
226.70,1.66
228.96,1.64
231.25,1.61
233.57,1.59
235.90,1.57
238.26,1.55
240.64,1.54
243.05,1.50
245.48,1.48
247.93,1.46
250.41,1.44
252.92,1.42
255.45,1.39
258.00,1.37
260.58,1.35
263.19,1.33
265.82,1.31
268.48,1.29
271.16,1.27
273.87,1.25
276.61,1.23
279.38,1.21
282.17,1.19
284.99,1.16
287.84,1.14
290.72,1.13
293.63,1.11
296.57,1.09
299.53,1.09
302.53,1.05
305.55,1.02
308.61,1.00
311.69,0.98
314.81,0.96
317.96,0.94
321.14,0.92
324.35,0.90
327.59,0.88
330.87,0.86
334.18,0.83
337.52,0.81
340.90,0.79
344.30,0.78
347.75,0.76
351.23,0.76
354.74,0.75
358.28,0.75
361.87,0.74
365.49,0.73
369.14,0.72
372.83,0.70
376.56,0.68
380.33,0.67
384.13,0.65
387.97,0.64
391.85,0.62
395.77,0.61
399.73,0.60
403.72,0.60
407.76,0.59
411.84,0.57
415.96,0.55
420.12,0.54
424.32,0.52
428.56,0.50
432.85,0.48
437.18,0.46
441.55,0.44
445.96,0.42
450.42,0.40
454.93,0.38
459.48,0.36
464.07,0.35
468.71,0.33
473.40,0.31
478.13,0.29
482.91,0.27
487.74,0.25
492.62,0.23
497.55,0.22
502.52,0.20
507.55,0.18
512.62,0.16
517.75,0.14
522.93,0.12
528.16,0.10
533.44,0.08
538.77,0.07
544.16,0.05
549.60,0.03
555.10,0.01
560.65,-0.01
566.25,-0.02
571.92,-0.04
577.64,-0.06
583.41,-0.08
589.25,-0.10
595.14,-0.11
601.09,-0.13
607.10,-0.15
613.17,-0.17
619.30,-0.18
625.50,-0.20
631.75,-0.22
638.07,-0.24
644.45,-0.25
650.89,-0.27
657.40,-0.29
663.98,-0.31
670.62,-0.32
677.32,-0.33
684.10,-0.35
690.94,-0.36
697.85,-0.37
704.83,-0.39
711.87,-0.40
718.99,-0.41
726.18,-0.42
733.44,-0.43
740.78,-0.44
748.19,-0.45
755.67,-0.46
763.23,-0.47
770.86,-0.47
778.57,-0.48
786.35,-0.48
794.22,-0.49
802.16,-0.49
810.18,-0.49
818.28,-0.49
826.46,-0.48
834.73,-0.48
843.08,-0.47
851.51,-0.47
860.02,-0.46
868.62,-0.44
877.31,-0.43
886.08,-0.41
894.94,-0.40
903.89,-0.38
912.93,-0.35
922.06,-0.32
931.28,-0.29
940.59,-0.26
950.00,-0.23
959.50,-0.19
969.09,-0.15
978.78,-0.10
988.57,-0.06
998.46,-0.01
1008.44,0.04
1018.53,0.10
1028.71,0.15
1039.00,0.21
1049.39,0.28
1059.88,0.34
1070.48,0.40
1081.19,0.47
1092.00,0.54
1102.92,0.61
1113.95,0.68
1125.09,0.75
1136.34,0.82
1147.70,0.89
1159.18,0.96
1170.77,1.02
1182.48,1.09
1194.30,1.15
1206.25,1.22
1218.31,1.28
1230.49,1.34
1242.80,1.40
1255.22,1.45
1267.78,1.51
1280.45,1.56
1293.26,1.60
1306.19,1.65
1319.25,1.69
1332.45,1.73
1345.77,1.78
1359.23,1.81
1372.82,1.85
1386.55,1.88
1400.41,1.91
1414.42,1.94
1428.56,1.97
1442.85,2.00
1457.28,2.02
1471.85,2.05
1486.57,2.07
1501.43,2.09
1516.45,2.11
1531.61,2.14
1546.93,2.16
1562.40,2.18
1578.02,2.20
1593.80,2.22
1609.74,2.25
1625.84,2.27
1642.10,2.29
1658.52,2.32
1675.10,2.34
1691.85,2.37
1708.77,2.39
1725.86,2.42
1743.12,2.45
1760.55,2.48
1778.15,2.52
1795.94,2.55
1813.90,2.59
1832.03,2.62
1850.36,2.66
1868.86,2.71
1887.55,2.75
1906.42,2.80
1925.49,2.84
1944.74,2.89
1964.19,2.95
1983.83,3.00
2003.67,3.06
2023.71,3.12
2043.94,3.18
2064.38,3.25
2085.03,3.32
2105.88,3.39
2126.94,3.47
2148.20,3.54
2169.69,3.62
2191.38,3.71
2213.30,3.79
2235.43,3.88
2257.78,3.97
2280.36,4.07
2303.17,4.16
2326.20,4.27
2349.46,4.37
2372.95,4.48
2396.68,4.59
2420.65,4.70
2444.86,4.82
2469.31,4.94
2494.00,5.06
2518.94,5.18
2544.13,5.31
2569.57,5.44
2595.27,5.57
2621.22,5.70
2647.43,5.83
2673.90,5.97
2700.64,6.10
2727.65,6.23
2754.93,6.36
2782.48,6.49
2810.30,6.61
2838.40,6.73
2866.79,6.85
2895.46,6.96
2924.41,7.05
2953.65,7.15
2983.19,7.23
3013.02,7.31
3043.15,7.38
3073.58,7.44
3104.32,7.49
3135.36,7.53
3166.72,7.56
3198.38,7.59
3230.37,7.59
3262.67,7.60
3295.30,7.58
3328.25,7.56
3361.53,7.53
3395.15,7.48
3429.10,7.42
3463.39,7.35
3498.03,7.27
3533.01,7.17
3568.34,7.07
3604.02,6.96
3640.06,6.85
3676.46,6.72
3713.22,6.60
3750.36,6.47
3787.86,6.34
3825.74,6.20
3864.00,6.07
3902.64,5.94
3941.66,5.80
3981.08,5.67
4020.89,5.55
4061.10,5.42
4101.71,5.30
4142.73,5.19
4184.15,5.07
4226.00,4.96
4268.26,4.85
4310.94,4.75
4354.05,4.65
4397.59,4.56
4441.56,4.47
4485.98,4.39
4530.84,4.31
4576.15,4.24
4621.91,4.18
4668.13,4.12
4714.81,4.06
4761.96,4.00
4809.58,3.95
4857.67,3.90
4906.25,3.85
4955.31,3.80
5004.87,3.75
5054.91,3.70
5105.46,3.65
5156.52,3.60
5208.08,3.55
5260.16,3.50
5312.77,3.46
5365.89,3.41
5419.55,3.37
5473.75,3.32
5528.49,3.28
5583.77,3.24
5639.61,3.21
5696.00,3.18
5752.96,3.15
5810.49,3.13
5868.60,3.11
5927.28,3.10
5986.56,3.10
6046.42,3.10
6106.89,3.11
6167.96,3.13
6229.64,3.16
6291.93,3.20
6354.85,3.25
6418.40,3.31
6482.58,3.38
6547.41,3.46
6612.88,3.56
6679.01,3.67
6745.80,3.80
6813.26,3.94
6881.39,4.10
6950.21,4.29
7019.71,4.49
7089.91,4.72
7160.81,4.98
7232.41,5.26
7304.74,5.56
7377.79,5.90
7451.56,6.26
7526.08,6.63
7601.34,7.01
7677.35,7.39
7754.13,7.76
7831.67,8.07
7909.98,8.33
7989.08,8.50
8068.98,8.49
8149.67,8.38
8231.16,8.13
8313.47,7.73
8396.61,7.27
8480.57,6.70
8565.38,6.08
8651.03,5.41
8737.54,4.71
8824.92,4.00
8913.17,3.29
9002.30,2.60
9092.32,1.95
9183.25,1.34
9275.08,0.76
9367.83,0.22
9461.51,-0.27
9556.12,-0.72
9651.68,-1.14
9748.20,-1.51
9845.68,-1.84
9944.14,-2.13
10043.58,-2.38
10144.02,-2.60
10245.46,-2.76
10347.91,-2.90
10451.39,-3.01
10555.91,-3.07
10661.46,-3.10
10768.08,-3.10
10875.76,-3.08
10984.52,-3.03
11094.36,-2.98
11205.31,-2.91
11317.36,-2.86
11430.53,-2.81
11544.84,-2.77
11660.29,-2.73
11776.89,-2.71
11894.66,-2.72
12013.60,-2.72
12133.74,-2.73
12255.08,-2.74
12377.63,-2.73
12501.41,-2.71
12626.42,-2.65
12752.68,-2.56
12880.21,-2.43
13009.01,-2.26
13139.10,-2.10
13270.49,-1.87
13403.20,-1.63
13537.23,-1.34
13672.60,-1.03
13809.33,-0.69
13947.42,-0.37
14086.90,-0.09
14227.77,0.16
14370.04,0.35
14513.74,0.46
14658.88,0.38
14805.47,0.19
14953.52,-0.18
15103.06,-0.70
15254.09,-1.30
15406.63,-2.05
15560.70,-2.83
15716.30,-3.65
15873.47,-4.50
16032.20,-5.32
16192.52,-6.00
16354.45,-6.43
16517.99,-6.76
16683.17,-7.33
16850.01,-7.66
17018.51,-7.84
17188.69,-8.04
17360.58,-7.88
17534.18,-7.47
17709.53,-6.87
17886.62,-6.76
18065.49,-6.74
18246.14,-6.65
18428.60,-6.31
18612.89,-6.16
18799.02,-6.41
18987.01,-7.45
19176.88,-9.06
19368.65,-10.96
19562.33,-13.21
19757.96,-15.89
19955.54,-18.57
