frequency,raw
20.00,6.68
20.20,6.67
20.40,6.67
20.61,6.67
20.81,6.66
21.02,6.66
21.23,6.65
21.44,6.64
21.66,6.63
21.87,6.62
22.09,6.61
22.31,6.60
22.54,6.60
22.76,6.59
22.99,6.59
23.22,6.58
23.45,6.57
23.69,6.57
23.92,6.56
24.16,6.55
24.40,6.54
24.65,6.53
24.89,6.52
25.14,6.51
25.39,6.50
25.65,6.49
25.91,6.48
26.16,6.47
26.43,6.46
26.69,6.45
26.96,6.43
27.23,6.42
27.50,6.40
27.77,6.39
28.05,6.37
28.33,6.36
28.62,6.34
28.90,6.32
29.19,6.31
29.48,6.29
29.78,6.28
30.08,6.26
30.38,6.24
30.68,6.22
30.99,6.20
31.30,6.18
31.61,6.16
31.93,6.14
32.24,6.12
32.57,6.10
32.89,6.08
33.22,6.06
33.55,6.04
33.89,6.02
34.23,6.00
34.57,5.97
34.92,5.95
35.27,5.92
35.62,5.89
35.97,5.87
36.33,5.84
36.70,5.81
37.06,5.79
37.43,5.76
37.81,5.73
38.19,5.71
38.57,5.68
38.95,5.66
39.34,5.63
39.74,5.60
40.14,5.57
40.54,5.54
40.94,5.51
41.35,5.47
41.76,5.44
42.18,5.41
42.60,5.37
43.03,5.34
43.46,5.31
43.90,5.27
44.33,5.24
44.78,5.21
45.23,5.17
45.68,5.14
46.13,5.10
46.60,5.06
47.06,5.02
47.53,4.99
48.01,4.96
48.49,4.92
48.97,4.88
49.46,4.83
49.96,4.79
50.46,4.75
50.96,4.71
51.47,4.67
51.99,4.63
52.51,4.58
53.03,4.54
53.56,4.49
54.10,4.44
54.64,4.39
55.18,4.36
55.74,4.32
56.29,4.27
56.86,4.22
57.42,4.17
58.00,4.13
58.58,4.08
59.16,4.03
59.76,3.98
60.35,3.94
60.96,3.89
61.57,3.84
62.18,3.78
62.80,3.73
63.43,3.68
64.07,3.63
64.71,3.58
65.35,3.52
66.01,3.47
66.67,3.42
67.33,3.36
68.01,3.31
68.69,3.26
69.37,3.20
70.07,3.15
70.77,3.10
71.48,3.04
72.19,2.99
72.91,2.93
73.64,2.88
74.38,2.82
75.12,2.77
75.87,2.71
76.63,2.66
77.40,2.60
78.17,2.54
78.95,2.49
79.74,2.43
80.54,2.38
81.35,2.32
82.16,2.26
82.98,2.20
83.81,2.15
84.65,2.09
85.50,2.03
86.35,1.98
87.22,1.92
88.09,1.87
88.97,1.81
89.86,1.76
90.76,1.70
91.66,1.65
92.58,1.59
93.51,1.54
94.44,1.48
95.39,1.43
96.34,1.37
97.30,1.32
98.28,1.27
99.26,1.21
100.25,1.16
101.25,1.11
102.27,1.06
103.29,1.01
104.32,0.96
105.37,0.91
106.42,0.86
107.48,0.81
108.56,0.76
109.64,0.71
110.74,0.67
111.85,0.62
112.97,0.57
114.10,0.53
115.24,0.48
116.39,0.44
117.55,0.40
118.73,0.36
119.92,0.32
121.12,0.27
122.33,0.23
123.55,0.19
124.79,0.15
126.03,0.12
127.29,0.08
128.57,0.04
129.85,0.01
131.15,-0.03
132.46,-0.06
133.79,-0.09
135.12,-0.13
136.48,-0.16
137.84,-0.19
139.22,-0.22
140.61,-0.25
142.02,-0.28
143.44,-0.30
144.87,-0.33
146.32,-0.36
147.78,-0.38
149.26,-0.41
150.75,-0.43
152.26,-0.45
153.78,-0.47
155.32,-0.50
156.88,-0.52
158.44,-0.53
160.03,-0.55
161.63,-0.57
163.24,-0.59
164.88,-0.61
166.53,-0.63
168.19,-0.64
169.87,-0.66
171.57,-0.67
173.29,-0.69
175.02,-0.70
176.77,-0.72
178.54,-0.73
180.32,-0.74
182.13,-0.76
183.95,-0.77
185.79,-0.78
187.65,-0.79
189.52,-0.80
191.42,-0.81
193.33,-0.81
195.27,-0.82
197.22,-0.83
199.19,-0.83
201.18,-0.83
203.19,-0.84
205.23,-0.85
207.28,-0.85
209.35,-0.86
211.44,-0.86
213.56,-0.87
215.69,-0.87
217.85,-0.87
220.03,-0.88
222.23,-0.88
224.45,-0.88
226.70,-0.88
228.96,-0.87
231.25,-0.87
233.57,-0.86
235.90,-0.85
238.26,-0.85
240.64,-0.85
243.05,-0.84
245.48,-0.84
247.93,-0.84
250.41,-0.84
252.92,-0.84
255.45,-0.84
258.00,-0.84
260.58,-0.84
263.19,-0.84
265.82,-0.84
268.48,-0.84
271.16,-0.84
273.87,-0.84
276.61,-0.84
279.38,-0.84
282.17,-0.84
284.99,-0.84
287.84,-0.85
290.72,-0.85
293.63,-0.85
296.57,-0.85
299.53,-0.84
302.53,-0.85
305.55,-0.85
308.61,-0.85
311.69,-0.85
314.81,-0.85
317.96,-0.85
321.14,-0.85
324.35,-0.85
327.59,-0.85
330.87,-0.85
334.18,-0.85
337.52,-0.85
340.90,-0.85
344.30,-0.85
347.75,-0.85
351.23,-0.85
354.74,-0.85
358.28,-0.84
361.87,-0.84
365.49,-0.84
369.14,-0.84
372.83,-0.84
376.56,-0.84
380.33,-0.84
384.13,-0.83
387.97,-0.83
391.85,-0.83
395.77,-0.83
399.73,-0.83
403.72,-0.82
407.76,-0.82
411.84,-0.82
415.96,-0.81
420.12,-0.81
424.32,-0.80
428.56,-0.79
432.85,-0.79
437.18,-0.78
441.55,-0.77
445.96,-0.76
450.42,-0.75
454.93,-0.75
459.48,-0.74
464.07,-0.73
468.71,-0.73
473.40,-0.73
478.13,-0.73
482.91,-0.73
487.74,-0.74
492.62,-0.74
497.55,-0.75
502.52,-0.75
507.55,-0.76
512.62,-0.77
517.75,-0.77
522.93,-0.78
528.16,-0.78
533.44,-0.79
538.77,-0.79
544.16,-0.80
549.60,-0.80
555.10,-0.81
560.65,-0.81
566.25,-0.82
571.92,-0.82
577.64,-0.83
583.41,-0.84
589.25,-0.84
595.14,-0.85
601.09,-0.86
607.10,-0.86
613.17,-0.87
619.30,-0.88
625.50,-0.88
631.75,-0.89
638.07,-0.90
644.45,-0.90
650.89,-0.91
657.40,-0.92
663.98,-0.93
670.62,-0.93
677.32,-0.94
684.10,-0.94
690.94,-0.95
697.85,-0.95
704.83,-0.96
711.87,-0.96
718.99,-0.96
726.18,-0.97
733.44,-0.97
740.78,-0.97
748.19,-0.97
755.67,-0.97
763.23,-0.97
770.86,-0.96
778.57,-0.96
786.35,-0.96
794.22,-0.95
802.16,-0.94
810.18,-0.92
818.28,-0.91
826.46,-0.89
834.73,-0.87
843.08,-0.85
851.51,-0.83
860.02,-0.80
868.62,-0.77
877.31,-0.73
886.08,-0.70
894.94,-0.66
903.89,-0.62
912.93,-0.57
922.06,-0.52
931.28,-0.47
940.59,-0.41
950.00,-0.36
959.50,-0.29
969.09,-0.23
978.78,-0.16
988.57,-0.09
998.46,-0.01
1008.44,0.07
1018.53,0.15
1028.71,0.23
1039.00,0.32
1049.39,0.41
1059.88,0.50
1070.48,0.59
1081.19,0.68
1092.00,0.78
1102.92,0.88
1113.95,0.97
1125.09,1.07
1136.34,1.17
1147.70,1.26
1159.18,1.36
1170.77,1.45
1182.48,1.55
1194.30,1.64
1206.25,1.73
1218.31,1.82
1230.49,1.90
1242.80,1.99
1255.22,2.07
1267.78,2.15
1280.45,2.22
1293.26,2.29
1306.19,2.36
1319.25,2.43
1332.45,2.49
1345.77,2.55
1359.23,2.60
1372.82,2.66
1386.55,2.71
1400.41,2.76
1414.42,2.80
1428.56,2.85
1442.85,2.89
1457.28,2.92
1471.85,2.96
1486.57,3.00
1501.43,3.03
1516.45,3.06
1531.61,3.09
1546.93,3.12
1562.40,3.14
1578.02,3.17
1593.80,3.19
1609.74,3.22
1625.84,3.24
1642.10,3.26
1658.52,3.28
1675.10,3.30
1691.85,3.32
1708.77,3.34
1725.86,3.36
1743.12,3.37
1760.55,3.39
1778.15,3.41
1795.94,3.43
1813.90,3.45
1832.03,3.47
1850.36,3.49
1868.86,3.51
1887.55,3.53
1906.42,3.55
1925.49,3.58
1944.74,3.60
1964.19,3.63
1983.83,3.65
2003.67,3.68
2023.71,3.71
2043.94,3.75
2064.38,3.78
2085.03,3.81
2105.88,3.85
2126.94,3.89
2148.20,3.93
2169.69,3.98
2191.38,4.02
2213.30,4.06
2235.43,4.11
2257.78,4.16
2280.36,4.21
2303.17,4.25
2326.20,4.30
2349.46,4.35
2372.95,4.39
2396.68,4.44
2420.65,4.48
2444.86,4.52
2469.31,4.56
2494.00,4.59
2518.94,4.61
2544.13,4.64
2569.57,4.65
2595.27,4.67
2621.22,4.67
2647.43,4.67
2673.90,4.67
2700.64,4.66
2727.65,4.64
2754.93,4.61
2782.48,4.58
2810.30,4.54
2838.40,4.50
2866.79,4.46
2895.46,4.41
2924.41,4.35
2953.65,4.30
2983.19,4.24
3013.02,4.18
3043.15,4.12
3073.58,4.05
3104.32,3.99
3135.36,3.93
3166.72,3.87
3198.38,3.81
3230.37,3.76
3262.67,3.70
3295.30,3.65
3328.25,3.60
3361.53,3.56
3395.15,3.52
3429.10,3.48
3463.39,3.45
3498.03,3.42
3533.01,3.39
3568.34,3.37
3604.02,3.35
3640.06,3.34
3676.46,3.32
3713.22,3.32
3750.36,3.31
3787.86,3.31
3825.74,3.32
3864.00,3.32
3902.64,3.33
3941.66,3.34
3981.08,3.35
4020.89,3.35
4061.10,3.36
4101.71,3.36
4142.73,3.35
4184.15,3.34
4226.00,3.32
4268.26,3.29
4310.94,3.25
4354.05,3.19
4397.59,3.12
4441.56,3.04
4485.98,2.93
4530.84,2.82
4576.15,2.68
4621.91,2.53
4668.13,2.36
4714.81,2.17
4761.96,1.97
4809.58,1.74
4857.67,1.51
4906.25,1.25
4955.31,0.99
5004.87,0.73
5054.91,0.46
5105.46,0.21
5156.52,-0.04
5208.08,-0.26
5260.16,-0.44
5312.77,-0.61
5365.89,-0.74
5419.55,-0.82
5473.75,-0.86
5528.49,-0.87
5583.77,-0.84
5639.61,-0.78
5696.00,-0.72
5752.96,-0.67
5810.49,-0.62
5868.60,-0.59
5927.28,-0.59
5986.56,-0.61
6046.42,-0.65
6106.89,-0.70
6167.96,-0.78
6229.64,-0.85
6291.93,-0.94
6354.85,-1.02
6418.40,-1.09
6482.58,-1.15
6547.41,-1.20
6612.88,-1.23
6679.01,-1.24
6745.80,-1.22
6813.26,-1.17
6881.39,-1.10
6950.21,-0.97
7019.71,-0.81
7089.91,-0.59
7160.81,-0.30
7232.41,0.01
7304.74,0.34
7377.79,0.67
7451.56,1.06
7526.08,1.49
7601.34,1.94
7677.35,2.41
7754.13,2.89
7831.67,3.35
7909.98,3.68
7989.08,3.79
8068.98,3.60
8149.67,3.29
8231.16,2.83
8313.47,2.29
8396.61,1.74
8480.57,1.18
8565.38,0.67
8651.03,0.22
8737.54,-0.17
8824.92,-0.46
8913.17,-0.68
9002.30,-0.88
9092.32,-1.10
9183.25,-1.37
9275.08,-1.69
9367.83,-2.08
9461.51,-2.51
9556.12,-2.91
9651.68,-3.28
9748.20,-3.58
9845.68,-3.78
9944.14,-3.88
10043.58,-3.91
10144.02,-3.91
10245.46,-3.79
10347.91,-3.63
10451.39,-3.41
10555.91,-3.13
10661.46,-2.81
10768.08,-2.46
10875.76,-2.07
10984.52,-1.68
11094.36,-1.33
11205.31,-1.05
11317.36,-0.95
11430.53,-0.91
11544.84,-0.97
11660.29,-1.08
11776.89,-1.27
11894.66,-1.64
12013.60,-2.03
12133.74,-2.44
12255.08,-2.81
12377.63,-3.15
12501.41,-3.43
12626.42,-3.61
12752.68,-3.71
12880.21,-3.69
13009.01,-3.60
13139.10,-3.52
13270.49,-3.28
13403.20,-3.00
13537.23,-2.67
13672.60,-2.36
13809.33,-2.07
13947.42,-1.94
14086.90,-2.00
14227.77,-2.18
14370.04,-2.51
14513.74,-3.02
14658.88,-3.68
14805.47,-4.36
14953.52,-5.05
15103.06,-5.69
15254.09,-6.30
15406.63,-6.76
15560.70,-7.14
15716.30,-7.40
15873.47,-7.46
16032.20,-7.41
16192.52,-7.10
16354.45,-6.60
16517.99,-5.94
16683.17,-4.99
16850.01,-3.83
17018.51,-2.51
17188.69,-0.87
17360.58,0.75
17534.18,2.14
17709.53,2.60
17886.62,2.16
18065.49,1.55
18246.14,1.12
18428.60,1.00
18612.89,0.85
18799.02,0.55
18987.01,-0.08
19176.88,-1.70
19368.65,-4.02
19562.33,-6.88
19757.96,-10.07
19955.54,-13.27
