frequency,raw
20.00,-5.31
20.20,-5.18
20.40,-5.06
20.61,-4.94
20.81,-4.81
21.02,-4.68
21.23,-4.54
21.44,-4.40
21.66,-4.25
21.87,-4.11
22.09,-3.97
22.31,-3.83
22.54,-3.70
22.76,-3.59
22.99,-3.48
23.22,-3.37
23.45,-3.26
23.69,-3.15
23.92,-3.03
24.16,-2.90
24.40,-2.78
24.65,-2.65
24.89,-2.54
25.14,-2.43
25.39,-2.32
25.65,-2.22
25.91,-2.13
26.16,-2.04
26.43,-1.94
26.69,-1.85
26.96,-1.76
27.23,-1.67
27.50,-1.58
27.77,-1.49
28.05,-1.41
28.33,-1.33
28.62,-1.25
28.90,-1.17
29.19,-1.10
29.48,-1.03
29.78,-0.97
30.08,-0.91
30.38,-0.85
30.68,-0.79
30.99,-0.74
31.30,-0.68
31.61,-0.63
31.93,-0.57
32.24,-0.52
32.57,-0.47
32.89,-0.41
33.22,-0.36
33.55,-0.30
33.89,-0.25
34.23,-0.19
34.57,-0.14
34.92,-0.10
35.27,-0.06
35.62,-0.02
35.97,0.01
36.33,0.04
36.70,0.07
37.06,0.10
37.43,0.13
37.81,0.15
38.19,0.17
38.57,0.18
38.95,0.20
39.34,0.22
39.74,0.23
40.14,0.23
40.54,0.24
40.94,0.23
41.35,0.23
41.76,0.22
42.18,0.22
42.60,0.21
43.03,0.19
43.46,0.16
43.90,0.14
44.33,0.12
44.78,0.10
45.23,0.08
45.68,0.05
46.13,0.02
46.60,-0.00
47.06,-0.02
47.53,-0.04
48.01,-0.05
48.49,-0.06
48.97,-0.08
49.46,-0.10
49.96,-0.11
50.46,-0.13
50.96,-0.15
51.47,-0.18
51.99,-0.20
52.51,-0.22
53.03,-0.23
53.56,-0.24
54.10,-0.25
54.64,-0.28
55.18,-0.30
55.74,-0.32
56.29,-0.33
56.86,-0.35
57.42,-0.35
58.00,-0.35
58.58,-0.38
59.16,-0.40
59.76,-0.44
60.35,-0.46
60.96,-0.47
61.57,-0.48
62.18,-0.50
62.80,-0.52
63.43,-0.54
64.07,-0.56
64.71,-0.57
65.35,-0.59
66.01,-0.59
66.67,-0.61
67.33,-0.63
68.01,-0.65
68.69,-0.67
69.37,-0.69
70.07,-0.71
70.77,-0.72
71.48,-0.73
72.19,-0.75
72.91,-0.77
73.64,-0.79
74.38,-0.80
75.12,-0.81
75.87,-0.83
76.63,-0.85
77.40,-0.87
78.17,-0.88
78.95,-0.90
79.74,-0.91
80.54,-0.92
81.35,-0.93
82.16,-0.94
82.98,-0.96
83.81,-0.97
84.65,-0.98
85.50,-0.99
86.35,-1.00
87.22,-1.02
88.09,-1.03
88.97,-1.04
89.86,-1.05
90.76,-1.07
91.66,-1.09
92.58,-1.10
93.51,-1.12
94.44,-1.14
95.39,-1.16
96.34,-1.18
97.30,-1.19
98.28,-1.22
99.26,-1.24
100.25,-1.26
101.25,-1.28
102.27,-1.31
103.29,-1.33
104.32,-1.34
105.37,-1.37
106.42,-1.39
107.48,-1.41
108.56,-1.43
109.64,-1.45
110.74,-1.47
111.85,-1.49
112.97,-1.50
114.10,-1.52
115.24,-1.54
116.39,-1.55
117.55,-1.57
118.73,-1.57
119.92,-1.58
121.12,-1.60
122.33,-1.64
123.55,-1.64
124.79,-1.66
126.03,-1.67
127.29,-1.68
128.57,-1.69
129.85,-1.70
131.15,-1.71
132.46,-1.72
133.79,-1.73
135.12,-1.74
136.48,-1.75
137.84,-1.76
139.22,-1.77
140.61,-1.78
142.02,-1.78
143.44,-1.79
144.87,-1.79
146.32,-1.81
147.78,-1.82
149.26,-1.82
150.75,-1.83
152.26,-1.83
153.78,-1.84
155.32,-1.84
156.88,-1.85
158.44,-1.85
160.03,-1.85
161.63,-1.86
163.24,-1.87
164.88,-1.87
166.53,-1.88
168.19,-1.88
169.87,-1.89
171.57,-1.90
173.29,-1.90
175.02,-1.91
176.77,-1.92
178.54,-1.92
180.32,-1.92
182.13,-1.93
183.95,-1.93
185.79,-1.94
187.65,-1.94
189.52,-1.95
191.42,-1.95
193.33,-1.95
195.27,-1.96
197.22,-1.96
199.19,-1.96
201.18,-1.96
203.19,-1.95
205.23,-1.95
207.28,-1.95
209.35,-1.95
211.44,-1.95
213.56,-1.96
215.69,-1.96
217.85,-1.96
220.03,-1.96
222.23,-1.96
224.45,-1.96
226.70,-1.96
228.96,-1.96
231.25,-1.96
233.57,-1.96
235.90,-1.95
238.26,-1.95
240.64,-1.94
243.05,-1.92
245.48,-1.92
247.93,-1.92
250.41,-1.91
252.92,-1.91
255.45,-1.91
258.00,-1.91
260.58,-1.91
263.19,-1.90
265.82,-1.90
268.48,-1.91
271.16,-1.91
273.87,-1.93
276.61,-1.94
279.38,-1.97
282.17,-1.98
284.99,-1.98
287.84,-1.99
290.72,-1.99
293.63,-2.00
296.57,-2.01
299.53,-2.01
302.53,-2.02
305.55,-2.02
308.61,-2.02
311.69,-2.03
314.81,-2.03
317.96,-2.03
321.14,-2.03
324.35,-2.03
327.59,-2.04
330.87,-2.04
334.18,-2.05
337.52,-2.04
340.90,-2.04
344.30,-2.04
347.75,-2.04
351.23,-2.03
354.74,-2.03
358.28,-2.03
361.87,-2.02
365.49,-2.01
369.14,-2.00
372.83,-1.99
376.56,-1.97
380.33,-1.94
384.13,-1.92
387.97,-1.89
391.85,-1.87
395.77,-1.85
399.73,-1.84
403.72,-1.81
407.76,-1.79
411.84,-1.75
415.96,-1.72
420.12,-1.69
424.32,-1.66
428.56,-1.64
432.85,-1.62
437.18,-1.60
441.55,-1.56
445.96,-1.53
450.42,-1.50
454.93,-1.47
459.48,-1.45
464.07,-1.42
468.71,-1.39
473.40,-1.35
478.13,-1.32
482.91,-1.29
487.74,-1.24
492.62,-1.22
497.55,-1.20
502.52,-1.17
507.55,-1.15
512.62,-1.10
517.75,-1.05
522.93,-1.00
528.16,-0.97
533.44,-0.93
538.77,-0.90
544.16,-0.87
549.60,-0.85
555.10,-0.83
560.65,-0.81
566.25,-0.82
571.92,-0.83
577.64,-0.85
583.41,-0.89
589.25,-0.95
595.14,-1.00
601.09,-1.05
607.10,-1.09
613.17,-1.13
619.30,-1.16
625.50,-1.19
631.75,-1.21
638.07,-1.20
644.45,-1.18
650.89,-1.17
657.40,-1.14
663.98,-1.11
670.62,-1.07
677.32,-1.02
684.10,-0.98
690.94,-0.93
697.85,-0.87
704.83,-0.83
711.87,-0.79
718.99,-0.74
726.18,-0.69
733.44,-0.63
740.78,-0.55
748.19,-0.47
755.67,-0.42
763.23,-0.38
770.86,-0.28
778.57,-0.19
786.35,-0.10
794.22,-0.03
802.16,0.04
810.18,0.11
818.28,0.19
826.46,0.25
834.73,0.26
843.08,0.27
851.51,0.28
860.02,0.31
868.62,0.33
877.31,0.34
886.08,0.31
894.94,0.26
903.89,0.19
912.93,0.10
922.06,0.02
931.28,-0.00
940.59,-0.02
950.00,-0.09
959.50,-0.12
969.09,-0.11
978.78,-0.08
988.57,-0.02
998.46,-0.01
1008.44,0.05
1018.53,0.12
1028.71,0.17
1039.00,0.09
1049.39,0.06
1059.88,0.09
1070.48,0.01
1081.19,-0.12
1092.00,-0.26
1102.92,-0.24
1113.95,-0.20
1125.09,-0.18
1136.34,-0.17
1147.70,-0.17
1159.18,-0.23
1170.77,-0.30
1182.48,-0.36
1194.30,-0.33
1206.25,-0.30
1218.31,-0.20
1230.49,-0.19
1242.80,-0.19
1255.22,-0.20
1267.78,-0.21
1280.45,-0.18
1293.26,-0.21
1306.19,-0.24
1319.25,-0.23
1332.45,-0.27
1345.77,-0.32
1359.23,-0.39
1372.82,-0.44
1386.55,-0.58
1400.41,-0.82
1414.42,-0.79
1428.56,-0.77
1442.85,-0.91
1457.28,-0.96
1471.85,-0.90
1486.57,-0.97
1501.43,-1.07
1516.45,-1.19
1531.61,-1.22
1546.93,-1.14
1562.40,-1.02
1578.02,-0.95
1593.80,-1.10
1609.74,-0.99
1625.84,-0.72
1642.10,-0.82
1658.52,-0.95
1675.10,-1.08
1691.85,-0.94
1708.77,-0.73
1725.86,-0.47
1743.12,-0.69
1760.55,-0.63
1778.15,-0.36
1795.94,0.04
1813.90,0.12
1832.03,0.15
1850.36,0.25
1868.86,0.61
1887.55,0.77
1906.42,0.82
1925.49,0.85
1944.74,1.05
1964.19,1.33
1983.83,1.59
2003.67,1.80
2023.71,2.10
2043.94,2.31
2064.38,2.53
2085.03,2.90
2105.88,3.21
2126.94,3.48
2148.20,3.81
2169.69,4.34
2191.38,4.54
2213.30,4.85
2235.43,5.43
2257.78,5.68
2280.36,5.92
2303.17,6.23
2326.20,6.43
2349.46,6.74
2372.95,7.03
2396.68,7.29
2420.65,7.65
2444.86,8.04
2469.31,8.44
2494.00,8.55
2518.94,8.80
2544.13,9.08
2569.57,9.32
2595.27,9.62
2621.22,9.95
2647.43,10.05
2673.90,10.39
2700.64,10.61
2727.65,10.67
2754.93,10.83
2782.48,10.79
2810.30,10.76
2838.40,10.84
2866.79,10.83
2895.46,10.76
2924.41,10.77
2953.65,10.80
2983.19,10.83
3013.02,10.77
3043.15,10.62
3073.58,10.73
3104.32,10.42
3135.36,10.35
3166.72,10.22
3198.38,10.00
3230.37,9.96
3262.67,9.86
3295.30,9.68
3328.25,9.48
3361.53,9.26
3395.15,8.98
3429.10,8.52
3463.39,8.11
3498.03,7.80
3533.01,7.46
3568.34,7.05
3604.02,6.58
3640.06,6.08
3676.46,5.67
3713.22,5.26
3750.36,4.80
3787.86,4.24
3825.74,3.67
3864.00,3.05
3902.64,2.41
3941.66,1.77
3981.08,1.23
4020.89,0.72
4061.10,0.20
4101.71,-0.06
4142.73,-0.34
4184.15,-0.61
4226.00,-0.78
4268.26,-0.90
4310.94,-0.93
4354.05,-0.23
4397.59,-0.61
4441.56,-1.60
4485.98,-1.72
4530.84,-0.42
4576.15,0.99
4621.91,1.97
4668.13,2.27
4714.81,2.98
4761.96,3.90
4809.58,5.04
4857.67,5.00
4906.25,4.82
4955.31,4.81
5004.87,5.00
5054.91,5.05
5105.46,5.05
5156.52,4.99
5208.08,4.93
5260.16,5.08
5312.77,5.26
5365.89,5.30
5419.55,5.49
5473.75,5.66
5528.49,5.71
5583.77,5.74
5639.61,5.56
5696.00,5.30
5752.96,5.05
5810.49,4.78
5868.60,4.40
5927.28,4.11
5986.56,3.92
6046.42,3.79
6106.89,3.70
6167.96,3.65
6229.64,3.63
6291.93,3.66
6354.85,3.62
6418.40,3.53
6482.58,3.35
6547.41,3.18
6612.88,3.02
6679.01,2.92
6745.80,2.85
6813.26,2.82
6881.39,2.93
6950.21,2.97
7019.71,2.94
7089.91,2.77
7160.81,2.64
7232.41,2.52
7304.74,2.43
7377.79,2.30
7451.56,2.19
7526.08,2.21
7601.34,2.47
7677.35,2.68
7754.13,2.89
7831.67,3.15
7909.98,3.52
7989.08,4.10
8068.98,5.05
8149.67,6.08
8231.16,7.14
8313.47,7.98
8396.61,8.58
8480.57,8.50
8565.38,7.67
8651.03,6.36
8737.54,4.59
8824.92,2.80
8913.17,0.98
9002.30,-0.88
9092.32,-3.22
9183.25,-5.89
9275.08,-8.70
9367.83,-11.55
9461.51,-12.64
9556.12,-13.07
9651.68,-12.83
9748.20,-11.84
9845.68,-10.05
9944.14,-8.07
10043.58,-6.43
10144.02,-5.33
10245.46,-4.26
10347.91,-3.32
10451.39,-2.49
10555.91,-1.61
10661.46,-0.91
10768.08,-0.38
10875.76,-0.03
10984.52,0.35
11094.36,0.60
11205.31,0.55
11317.36,0.67
11430.53,0.81
11544.84,1.02
11660.29,1.29
11776.89,1.29
11894.66,0.52
12013.60,-0.37
12133.74,-1.66
12255.08,-3.15
12377.63,-4.56
12501.41,-5.34
12626.42,-6.21
12752.68,-7.06
12880.21,-7.64
13009.01,-8.08
13139.10,-8.51
13270.49,-8.54
13403.20,-8.45
13537.23,-8.26
13672.60,-7.73
13809.33,-6.88
13947.42,-6.05
14086.90,-5.82
14227.77,-5.95
14370.04,-6.37
14513.74,-7.09
14658.88,-7.63
14805.47,-7.87
14953.52,-7.62
15103.06,-7.00
15254.09,-6.21
15406.63,-5.05
15560.70,-3.83
15716.30,-2.54
15873.47,-1.43
16032.20,-0.49
16192.52,0.01
16354.45,-0.05
16517.99,-0.54
16683.17,-1.95
16850.01,-3.68
17018.51,-5.57
17188.69,-6.86
17360.58,-8.09
17534.18,-9.12
17709.53,-9.45
17886.62,-10.29
18065.49,-11.22
18246.14,-12.08
18428.60,-13.64
18612.89,-15.51
18799.02,-17.68
18987.01,-20.12
19176.88,-20.77
19368.65,-22.75
19562.33,-25.58
19757.96,-28.35
19955.54,-31.13
