frequency,raw
20.00,-9.36
20.20,-9.31
20.40,-9.25
20.61,-9.20
20.81,-9.16
21.02,-9.12
21.23,-9.08
21.44,-9.02
21.66,-8.95
21.87,-8.87
22.09,-8.77
22.31,-8.65
22.54,-8.52
22.76,-8.38
22.99,-8.24
23.22,-8.10
23.45,-7.97
23.69,-7.86
23.92,-7.77
24.16,-7.71
24.40,-7.67
24.65,-7.64
24.89,-7.62
25.14,-7.59
25.39,-7.56
25.65,-7.50
25.91,-7.44
26.16,-7.36
26.43,-7.27
26.69,-7.17
26.96,-7.07
27.23,-6.98
27.50,-6.90
27.77,-6.83
28.05,-6.77
28.33,-6.72
28.62,-6.67
28.90,-6.62
29.19,-6.57
29.48,-6.52
29.78,-6.46
30.08,-6.41
30.38,-6.36
30.68,-6.31
30.99,-6.26
31.30,-6.20
31.61,-6.14
31.93,-6.07
32.24,-6.01
32.57,-5.94
32.89,-5.89
33.22,-5.84
33.55,-5.79
33.89,-5.75
34.23,-5.70
34.57,-5.65
34.92,-5.59
35.27,-5.54
35.62,-5.49
35.97,-5.44
36.33,-5.40
36.70,-5.35
37.06,-5.30
37.43,-5.25
37.81,-5.20
38.19,-5.15
38.57,-5.10
38.95,-5.04
39.34,-4.98
39.74,-4.93
40.14,-4.87
40.54,-4.82
40.94,-4.77
41.35,-4.73
41.76,-4.69
42.18,-4.63
42.60,-4.59
43.03,-4.54
43.46,-4.51
43.90,-4.48
44.33,-4.45
44.78,-4.42
45.23,-4.39
45.68,-4.36
46.13,-4.33
46.60,-4.30
47.06,-4.27
47.53,-4.24
48.01,-4.23
48.49,-4.22
48.97,-4.22
49.46,-4.20
49.96,-4.19
50.46,-4.18
50.96,-4.18
51.47,-4.18
51.99,-4.18
52.51,-4.18
53.03,-4.19
53.56,-4.23
54.10,-4.26
54.64,-4.29
55.18,-4.29
55.74,-4.29
56.29,-4.31
56.86,-4.36
57.42,-4.40
58.00,-4.44
58.58,-4.47
59.16,-4.50
59.76,-4.52
60.35,-4.52
60.96,-4.53
61.57,-4.55
62.18,-4.58
62.80,-4.60
63.43,-4.61
64.07,-4.62
64.71,-4.62
65.35,-4.62
66.01,-4.63
66.67,-4.64
67.33,-4.64
68.01,-4.64
68.69,-4.63
69.37,-4.62
70.07,-4.62
70.77,-4.61
71.48,-4.60
72.19,-4.58
72.91,-4.57
73.64,-4.56
74.38,-4.53
75.12,-4.50
75.87,-4.47
76.63,-4.45
77.40,-4.43
78.17,-4.37
78.95,-4.30
79.74,-4.27
80.54,-4.22
81.35,-4.17
82.16,-4.12
82.98,-4.07
83.81,-4.02
84.65,-3.97
85.50,-3.93
86.35,-3.88
87.22,-3.84
88.09,-3.79
88.97,-3.75
89.86,-3.72
90.76,-3.70
91.66,-3.69
92.58,-3.68
93.51,-3.69
94.44,-3.71
95.39,-3.76
96.34,-3.83
97.30,-3.91
98.28,-3.97
99.26,-4.03
100.25,-4.09
101.25,-4.13
102.27,-4.17
103.29,-4.21
104.32,-4.25
105.37,-4.30
106.42,-4.35
107.48,-4.40
108.56,-4.48
109.64,-4.55
110.74,-4.63
111.85,-4.71
112.97,-4.79
114.10,-4.87
115.24,-4.95
116.39,-5.03
117.55,-5.10
118.73,-5.17
119.92,-5.22
121.12,-5.28
122.33,-5.34
123.55,-5.40
124.79,-5.44
126.03,-5.47
127.29,-5.51
128.57,-5.53
129.85,-5.54
131.15,-5.55
132.46,-5.56
133.79,-5.57
135.12,-5.55
136.48,-5.53
137.84,-5.52
139.22,-5.50
140.61,-5.47
142.02,-5.44
143.44,-5.41
144.87,-5.36
146.32,-5.33
147.78,-5.29
149.26,-5.25
150.75,-5.20
152.26,-5.16
153.78,-5.10
155.32,-5.04
156.88,-4.97
158.44,-4.91
160.03,-4.86
161.63,-4.81
163.24,-4.76
164.88,-4.71
166.53,-4.67
168.19,-4.63
169.87,-4.61
171.57,-4.58
173.29,-4.57
175.02,-4.55
176.77,-4.53
178.54,-4.54
180.32,-4.55
182.13,-4.54
183.95,-4.54
185.79,-4.54
187.65,-4.54
189.52,-4.56
191.42,-4.57
193.33,-4.59
195.27,-4.61
197.22,-4.62
199.19,-4.68
201.18,-4.76
203.19,-4.85
205.23,-4.97
207.28,-4.95
209.35,-4.84
211.44,-4.75
213.56,-4.72
215.69,-4.71
217.85,-4.70
220.03,-4.67
222.23,-4.69
224.45,-4.71
226.70,-4.72
228.96,-4.73
231.25,-4.74
233.57,-4.75
235.90,-4.77
238.26,-4.76
240.64,-4.76
243.05,-4.81
245.48,-4.81
247.93,-4.83
250.41,-4.85
252.92,-4.87
255.45,-4.89
258.00,-4.92
260.58,-4.94
263.19,-4.97
265.82,-5.00
268.48,-5.03
271.16,-5.06
273.87,-5.08
276.61,-5.12
279.38,-5.15
282.17,-5.18
284.99,-5.21
287.84,-5.25
290.72,-5.29
293.63,-5.32
296.57,-5.36
299.53,-5.40
302.53,-5.44
305.55,-5.49
308.61,-5.54
311.69,-5.59
314.81,-5.64
317.96,-5.70
321.14,-5.76
324.35,-5.82
327.59,-5.89
330.87,-5.96
334.18,-6.03
337.52,-6.07
340.90,-6.06
344.30,-5.96
347.75,-5.96
351.23,-5.99
354.74,-6.04
358.28,-5.99
361.87,-5.90
365.49,-5.81
369.14,-5.86
372.83,-5.92
376.56,-5.97
380.33,-6.01
384.13,-6.04
387.97,-6.07
391.85,-6.09
395.77,-6.12
399.73,-6.14
403.72,-6.16
407.76,-6.18
411.84,-6.21
415.96,-6.25
420.12,-6.28
424.32,-6.31
428.56,-6.34
432.85,-6.38
437.18,-6.42
441.55,-6.45
445.96,-6.48
450.42,-6.51
454.93,-6.53
459.48,-6.55
464.07,-6.57
468.71,-6.60
473.40,-6.63
478.13,-6.66
482.91,-6.69
487.74,-6.73
492.62,-6.74
497.55,-6.76
502.52,-6.77
507.55,-6.79
512.62,-6.81
517.75,-6.84
522.93,-6.86
528.16,-6.87
533.44,-6.88
538.77,-6.87
544.16,-6.87
549.60,-6.84
555.10,-6.80
560.65,-6.75
566.25,-6.68
571.92,-6.61
577.64,-6.52
583.41,-6.43
589.25,-6.32
595.14,-6.21
601.09,-6.09
607.10,-5.97
613.17,-5.83
619.30,-5.69
625.50,-5.54
631.75,-5.39
638.07,-5.24
644.45,-5.08
650.89,-4.93
657.40,-4.78
663.98,-4.63
670.62,-4.47
677.32,-4.32
684.10,-4.17
690.94,-4.03
697.85,-3.88
704.83,-3.73
711.87,-3.58
718.99,-3.44
726.18,-3.30
733.44,-3.16
740.78,-3.03
748.19,-2.90
755.67,-2.77
763.23,-2.64
770.86,-2.52
778.57,-2.41
786.35,-2.30
794.22,-2.21
802.16,-2.10
810.18,-1.95
818.28,-1.82
826.46,-1.69
834.73,-1.59
843.08,-1.49
851.51,-1.38
860.02,-1.28
868.62,-1.17
877.31,-1.05
886.08,-0.94
894.94,-0.83
903.89,-0.73
912.93,-0.64
922.06,-0.56
931.28,-0.49
940.59,-0.41
950.00,-0.34
959.50,-0.28
969.09,-0.22
978.78,-0.15
988.57,-0.08
998.46,-0.01
1008.44,0.05
1018.53,0.11
1028.71,0.17
1039.00,0.23
1049.39,0.28
1059.88,0.34
1070.48,0.38
1081.19,0.42
1092.00,0.47
1102.92,0.51
1113.95,0.55
1125.09,0.59
1136.34,0.63
1147.70,0.68
1159.18,0.71
1170.77,0.75
1182.48,0.74
1194.30,0.82
1206.25,0.90
1218.31,1.04
1230.49,1.15
1242.80,1.25
1255.22,1.30
1267.78,1.33
1280.45,1.33
1293.26,1.32
1306.19,1.30
1319.25,1.28
1332.45,1.20
1345.77,1.06
1359.23,0.83
1372.82,0.74
1386.55,0.89
1400.41,1.30
1414.42,2.02
1428.56,2.74
1442.85,3.26
1457.28,3.58
1471.85,3.73
1486.57,3.74
1501.43,3.72
1516.45,3.68
1531.61,3.65
1546.93,3.63
1562.40,3.62
1578.02,3.62
1593.80,3.63
1609.74,3.63
1625.84,3.65
1642.10,3.66
1658.52,3.67
1675.10,3.69
1691.85,3.71
1708.77,3.73
1725.86,3.75
1743.12,3.76
1760.55,3.77
1778.15,3.76
1795.94,3.75
1813.90,3.74
1832.03,3.74
1850.36,3.76
1868.86,3.80
1887.55,3.85
1906.42,3.89
1925.49,3.92
1944.74,3.92
1964.19,3.92
1983.83,3.93
2003.67,3.94
2023.71,3.98
2043.94,4.04
2064.38,4.09
2085.03,4.12
2105.88,4.21
2126.94,4.33
2148.20,4.47
2169.69,4.59
2191.38,4.70
2213.30,4.81
2235.43,4.92
2257.78,5.05
2280.36,5.21
2303.17,5.39
2326.20,5.65
2349.46,6.07
2372.95,6.58
2396.68,7.14
2420.65,7.69
2444.86,7.88
2469.31,7.84
2494.00,7.41
2518.94,7.10
2544.13,6.86
2569.57,6.74
2595.27,6.71
2621.22,6.74
2647.43,6.85
2673.90,7.04
2700.64,7.27
2727.65,7.58
2754.93,7.92
2782.48,8.14
2810.30,8.36
2838.40,8.62
2866.79,9.02
2895.46,9.51
2924.41,9.58
2953.65,9.49
2983.19,8.91
3013.02,8.31
3043.15,7.69
3073.58,7.16
3104.32,6.70
3135.36,6.29
3166.72,5.89
3198.38,5.50
3230.37,5.13
3262.67,4.79
3295.30,4.49
3328.25,4.18
3361.53,3.86
3395.15,3.54
3429.10,3.23
3463.39,2.94
3498.03,2.69
3533.01,2.53
3568.34,2.35
3604.02,2.12
3640.06,1.80
3676.46,1.45
3713.22,1.10
3750.36,0.76
3787.86,0.50
3825.74,0.25
3864.00,0.07
3902.64,-0.07
3941.66,-0.21
3981.08,-0.44
4020.89,-0.71
4061.10,-1.00
4101.71,-1.28
4142.73,-1.49
4184.15,-1.67
4226.00,-1.97
4268.26,-2.30
4310.94,-2.66
4354.05,-3.05
4397.59,-3.42
4441.56,-3.77
4485.98,-4.02
4530.84,-4.20
4576.15,-4.25
4621.91,-4.23
4668.13,-4.00
4714.81,-3.69
4761.96,-3.39
4809.58,-3.19
4857.67,-3.20
4906.25,-3.39
4955.31,-3.63
5004.87,-3.89
5054.91,-4.17
5105.46,-4.42
5156.52,-4.61
5208.08,-4.63
5260.16,-4.86
5312.77,-4.85
5365.89,-3.93
5419.55,-3.03
5473.75,-2.20
5528.49,-1.44
5583.77,-0.76
5639.61,-0.41
5696.00,-0.19
5752.96,-0.29
5810.49,-0.41
5868.60,-0.51
5927.28,-0.59
5986.56,-0.66
6046.42,-0.91
6106.89,-1.23
6167.96,-1.56
6229.64,-1.83
6291.93,-2.08
6354.85,-2.39
6418.40,-2.73
6482.58,-3.12
6547.41,-3.49
6612.88,-3.84
6679.01,-4.14
6745.80,-4.41
6813.26,-4.66
6881.39,-4.87
6950.21,-5.06
7019.71,-5.22
7089.91,-5.33
7160.81,-5.36
7232.41,-5.34
7304.74,-5.27
7377.79,-5.18
7451.56,-5.05
7526.08,-4.83
7601.34,-4.49
7677.35,-4.08
7754.13,-3.66
7831.67,-3.23
7909.98,-2.85
7989.08,-2.55
8068.98,-2.51
8149.67,-2.55
8231.16,-2.66
8313.47,-2.93
8396.61,-3.36
8480.57,-4.28
8565.38,-5.72
8651.03,-7.40
8737.54,-9.21
8824.92,-10.42
8913.17,-9.89
9002.30,-8.69
9092.32,-6.81
9183.25,-5.20
9275.08,-3.74
9367.83,-2.42
9461.51,-1.14
9556.12,0.03
9651.68,1.00
9748.20,1.74
9845.68,1.98
9944.14,1.98
10043.58,1.76
10144.02,1.43
10245.46,1.16
10347.91,0.97
10451.39,0.88
10555.91,0.98
10661.46,1.18
10768.08,1.44
10875.76,1.75
10984.52,1.99
11094.36,2.18
11205.31,2.31
11317.36,2.60
11430.53,2.95
11544.84,3.22
11660.29,3.29
11776.89,3.15
11894.66,2.58
12013.60,1.97
12133.74,1.20
12255.08,0.16
12377.63,-1.08
12501.41,-2.59
12626.42,-4.40
12752.68,-6.31
12880.21,-8.21
13009.01,-10.11
13139.10,-12.00
13270.49,-12.56
13403.20,-12.28
13537.23,-11.53
13672.60,-11.48
13809.33,-12.18
13947.42,-14.65
14086.90,-14.46
14227.77,-12.65
14370.04,-10.72
14513.74,-8.78
14658.88,-8.09
14805.47,-7.75
14953.52,-8.00
15103.06,-8.53
15254.09,-9.18
15406.63,-9.31
15560.70,-9.25
15716.30,-8.89
15873.47,-7.92
16032.20,-6.72
16192.52,-5.29
16354.45,-4.73
16517.99,-4.78
16683.17,-5.86
16850.01,-7.04
17018.51,-8.24
17188.69,-9.21
17360.58,-10.03
17534.18,-10.74
17709.53,-11.38
17886.62,-11.77
18065.49,-11.86
18246.14,-11.58
18428.60,-11.98
18612.89,-12.92
18799.02,-22.88
18987.01,-57.28
19176.88,-68.72
19368.65,-69.03
19562.33,-65.46
19757.96,-66.01
19955.54,-66.56
