frequency,raw
20.00,-1.92
20.20,-1.82
20.40,-1.72
20.61,-1.61
20.81,-1.52
21.02,-1.43
21.23,-1.34
21.44,-1.27
21.66,-1.21
21.87,-1.14
22.09,-1.09
22.31,-1.04
22.54,-0.99
22.76,-0.94
22.99,-0.89
23.22,-0.83
23.45,-0.78
23.69,-0.73
23.92,-0.67
24.16,-0.61
24.40,-0.55
24.65,-0.49
24.89,-0.43
25.14,-0.36
25.39,-0.29
25.65,-0.22
25.91,-0.15
26.16,-0.07
26.43,-0.00
26.69,0.07
26.96,0.14
27.23,0.20
27.50,0.26
27.77,0.32
28.05,0.37
28.33,0.43
28.62,0.48
28.90,0.53
29.19,0.58
29.48,0.63
29.78,0.68
30.08,0.73
30.38,0.78
30.68,0.83
30.99,0.88
31.30,0.92
31.61,0.96
31.93,1.00
32.24,1.04
32.57,1.08
32.89,1.13
33.22,1.17
33.55,1.22
33.89,1.27
34.23,1.31
34.57,1.35
34.92,1.39
35.27,1.43
35.62,1.47
35.97,1.51
36.33,1.55
36.70,1.58
37.06,1.62
37.43,1.65
37.81,1.67
38.19,1.70
38.57,1.73
38.95,1.75
39.34,1.78
39.74,1.80
40.14,1.82
40.54,1.84
40.94,1.86
41.35,1.87
41.76,1.89
42.18,1.89
42.60,1.90
43.03,1.91
43.46,1.91
43.90,1.90
44.33,1.90
44.78,1.89
45.23,1.88
45.68,1.89
46.13,1.89
46.60,1.89
47.06,1.88
47.53,1.87
48.01,1.86
48.49,1.84
48.97,1.82
49.46,1.80
49.96,1.78
50.46,1.76
50.96,1.73
51.47,1.71
51.99,1.69
52.51,1.66
53.03,1.63
53.56,1.60
54.10,1.57
54.64,1.54
55.18,1.53
55.74,1.50
56.29,1.48
56.86,1.46
57.42,1.44
58.00,1.41
58.58,1.39
59.16,1.36
59.76,1.35
60.35,1.33
60.96,1.30
61.57,1.28
62.18,1.27
62.80,1.25
63.43,1.24
64.07,1.22
64.71,1.21
65.35,1.19
66.01,1.18
66.67,1.17
67.33,1.16
68.01,1.14
68.69,1.13
69.37,1.11
70.07,1.10
70.77,1.09
71.48,1.08
72.19,1.06
72.91,1.05
73.64,1.04
74.38,1.03
75.12,1.01
75.87,1.00
76.63,0.98
77.40,0.97
78.17,0.95
78.95,0.93
79.74,0.92
80.54,0.90
81.35,0.88
82.16,0.86
82.98,0.83
83.81,0.81
84.65,0.77
85.50,0.74
86.35,0.71
87.22,0.67
88.09,0.63
88.97,0.58
89.86,0.53
90.76,0.48
91.66,0.43
92.58,0.38
93.51,0.33
94.44,0.28
95.39,0.23
96.34,0.18
97.30,0.13
98.28,0.08
99.26,0.03
100.25,-0.01
101.25,-0.06
102.27,-0.11
103.29,-0.16
104.32,-0.21
105.37,-0.26
106.42,-0.32
107.48,-0.37
108.56,-0.43
109.64,-0.49
110.74,-0.55
111.85,-0.61
112.97,-0.66
114.10,-0.72
115.24,-0.77
116.39,-0.83
117.55,-0.88
118.73,-0.93
119.92,-0.99
121.12,-1.04
122.33,-1.10
123.55,-1.15
124.79,-1.20
126.03,-1.25
127.29,-1.30
128.57,-1.36
129.85,-1.41
131.15,-1.46
132.46,-1.51
133.79,-1.57
135.12,-1.62
136.48,-1.67
137.84,-1.72
139.22,-1.77
140.61,-1.82
142.02,-1.87
143.44,-1.92
144.87,-1.97
146.32,-2.02
147.78,-2.07
149.26,-2.12
150.75,-2.16
152.26,-2.21
153.78,-2.26
155.32,-2.31
156.88,-2.35
158.44,-2.40
160.03,-2.44
161.63,-2.49
163.24,-2.54
164.88,-2.58
166.53,-2.63
168.19,-2.68
169.87,-2.73
171.57,-2.77
173.29,-2.82
175.02,-2.87
176.77,-2.92
178.54,-2.97
180.32,-3.01
182.13,-3.06
183.95,-3.11
185.79,-3.16
187.65,-3.21
189.52,-3.26
191.42,-3.31
193.33,-3.36
195.27,-3.41
197.22,-3.46
199.19,-3.52
201.18,-3.59
203.19,-3.67
205.23,-3.77
207.28,-3.85
209.35,-3.90
211.44,-3.92
213.56,-3.95
215.69,-3.97
217.85,-4.00
220.03,-4.03
222.23,-4.07
224.45,-4.11
226.70,-4.16
228.96,-4.20
231.25,-4.25
233.57,-4.30
235.90,-4.34
238.26,-4.39
240.64,-4.44
243.05,-4.48
245.48,-4.52
247.93,-4.57
250.41,-4.61
252.92,-4.65
255.45,-4.69
258.00,-4.74
260.58,-4.78
263.19,-4.82
265.82,-4.86
268.48,-4.90
271.16,-4.94
273.87,-4.97
276.61,-5.01
279.38,-5.05
282.17,-5.08
284.99,-5.12
287.84,-5.15
290.72,-5.19
293.63,-5.22
296.57,-5.26
299.53,-5.29
302.53,-5.32
305.55,-5.34
308.61,-5.37
311.69,-5.40
314.81,-5.43
317.96,-5.47
321.14,-5.50
324.35,-5.54
327.59,-5.58
330.87,-5.63
334.18,-5.70
337.52,-5.77
340.90,-5.82
344.30,-5.79
347.75,-5.78
351.23,-5.80
354.74,-5.85
358.28,-5.88
361.87,-5.85
365.49,-5.78
369.14,-5.76
372.83,-5.76
376.56,-5.77
380.33,-5.78
384.13,-5.79
387.97,-5.80
391.85,-5.81
395.77,-5.81
399.73,-5.81
403.72,-5.81
407.76,-5.82
411.84,-5.82
415.96,-5.83
420.12,-5.84
424.32,-5.85
428.56,-5.86
432.85,-5.88
437.18,-5.89
441.55,-5.91
445.96,-5.93
450.42,-5.96
454.93,-5.98
459.48,-6.00
464.07,-6.01
468.71,-6.04
473.40,-6.07
478.13,-6.10
482.91,-6.15
487.74,-6.19
492.62,-6.23
497.55,-6.27
502.52,-6.32
507.55,-6.36
512.62,-6.42
517.75,-6.48
522.93,-6.54
528.16,-6.60
533.44,-6.66
538.77,-6.73
544.16,-6.80
549.60,-6.86
555.10,-6.92
560.65,-6.97
566.25,-7.01
571.92,-7.04
577.64,-7.07
583.41,-7.08
589.25,-7.09
595.14,-7.08
601.09,-7.06
607.10,-7.03
613.17,-7.00
619.30,-6.95
625.50,-6.89
631.75,-6.83
638.07,-6.76
644.45,-6.68
650.89,-6.60
657.40,-6.52
663.98,-6.43
670.62,-6.35
677.32,-6.25
684.10,-6.15
690.94,-6.06
697.85,-5.96
704.83,-5.85
711.87,-5.73
718.99,-5.61
726.18,-5.50
733.44,-5.38
740.78,-5.25
748.19,-5.12
755.67,-4.98
763.23,-4.83
770.86,-4.68
778.57,-4.52
786.35,-4.36
794.22,-4.21
802.16,-4.06
810.18,-3.88
818.28,-3.67
826.46,-3.45
834.73,-3.26
843.08,-3.07
851.51,-2.88
860.02,-2.68
868.62,-2.48
877.31,-2.27
886.08,-2.06
894.94,-1.85
903.89,-1.65
912.93,-1.45
922.06,-1.27
931.28,-1.10
940.59,-0.93
950.00,-0.78
959.50,-0.62
969.09,-0.47
978.78,-0.31
988.57,-0.16
998.46,-0.02
1008.44,0.12
1018.53,0.25
1028.71,0.38
1039.00,0.49
1049.39,0.61
1059.88,0.72
1070.48,0.82
1081.19,0.92
1092.00,1.02
1102.92,1.12
1113.95,1.21
1125.09,1.29
1136.34,1.38
1147.70,1.46
1159.18,1.54
1170.77,1.61
1182.48,1.60
1194.30,1.66
1206.25,1.72
1218.31,1.88
1230.49,2.03
1242.80,2.17
1255.22,2.27
1267.78,2.34
1280.45,2.38
1293.26,2.38
1306.19,2.37
1319.25,2.36
1332.45,2.28
1345.77,2.13
1359.23,1.89
1372.82,1.73
1386.55,1.78
1400.41,2.05
1414.42,2.69
1428.56,3.33
1442.85,3.89
1457.28,4.30
1471.85,4.58
1486.57,4.71
1501.43,4.80
1516.45,4.82
1531.61,4.84
1546.93,4.86
1562.40,4.89
1578.02,4.93
1593.80,4.97
1609.74,5.01
1625.84,5.04
1642.10,5.08
1658.52,5.11
1675.10,5.14
1691.85,5.18
1708.77,5.22
1725.86,5.27
1743.12,5.34
1760.55,5.43
1778.15,5.52
1795.94,5.60
1813.90,5.65
1832.03,5.70
1850.36,5.74
1868.86,5.78
1887.55,5.82
1906.42,5.85
1925.49,5.88
1944.74,5.90
1964.19,5.90
1983.83,5.91
2003.67,5.92
2023.71,5.96
2043.94,6.01
2064.38,6.05
2085.03,6.06
2105.88,6.12
2126.94,6.21
2148.20,6.33
2169.69,6.43
2191.38,6.50
2213.30,6.56
2235.43,6.62
2257.78,6.69
2280.36,6.77
2303.17,6.88
2326.20,7.05
2349.46,7.35
2372.95,7.78
2396.68,8.28
2420.65,8.87
2444.86,9.25
2469.31,9.49
2494.00,9.24
2518.94,8.99
2544.13,8.75
2569.57,8.59
2595.27,8.51
2621.22,8.48
2647.43,8.53
2673.90,8.65
2700.64,8.83
2727.65,9.09
2754.93,9.43
2782.48,9.71
2810.30,9.98
2838.40,10.27
2866.79,10.79
2895.46,11.49
2924.41,12.03
2953.65,12.46
2983.19,12.29
3013.02,11.98
3043.15,11.51
3073.58,11.03
3104.32,10.56
3135.36,10.13
3166.72,9.71
3198.38,9.28
3230.37,8.87
3262.67,8.48
3295.30,8.14
3328.25,7.79
3361.53,7.44
3395.15,7.09
3429.10,6.73
3463.39,6.38
3498.03,6.06
3533.01,5.87
3568.34,5.68
3604.02,5.47
3640.06,5.17
3676.46,4.84
3713.22,4.49
3750.36,4.16
3787.86,3.87
3825.74,3.59
3864.00,3.39
3902.64,3.21
3941.66,3.04
3981.08,2.81
4020.89,2.55
4061.10,2.25
4101.71,1.99
4142.73,1.77
4184.15,1.57
4226.00,1.26
4268.26,0.92
4310.94,0.55
4354.05,0.14
4397.59,-0.25
4441.56,-0.62
4485.98,-0.89
4530.84,-1.08
4576.15,-1.14
4621.91,-1.12
4668.13,-0.92
4714.81,-0.65
4761.96,-0.39
4809.58,-0.21
4857.67,-0.25
4906.25,-0.48
4955.31,-0.77
5004.87,-1.10
5054.91,-1.47
5105.46,-1.79
5156.52,-2.04
5208.08,-2.13
5260.16,-2.47
5312.77,-2.59
5365.89,-1.81
5419.55,-1.02
5473.75,-0.26
5528.49,0.43
5583.77,1.03
5639.61,1.28
5696.00,1.37
5752.96,1.10
5810.49,0.81
5868.60,0.53
5927.28,0.25
5986.56,-0.03
6046.42,-0.50
6106.89,-1.06
6167.96,-1.62
6229.64,-2.12
6291.93,-2.57
6354.85,-3.08
6418.40,-3.61
6482.58,-4.18
6547.41,-4.68
6612.88,-5.16
6679.01,-5.55
6745.80,-5.88
6813.26,-6.18
6881.39,-6.42
6950.21,-6.62
7019.71,-6.78
7089.91,-6.89
7160.81,-6.90
7232.41,-6.87
7304.74,-6.80
7377.79,-6.71
7451.56,-6.57
7526.08,-6.35
7601.34,-6.02
7677.35,-5.60
7754.13,-5.16
7831.67,-4.70
7909.98,-4.27
7989.08,-3.90
8068.98,-3.73
8149.67,-3.61
8231.16,-3.52
8313.47,-3.66
8396.61,-3.99
8480.57,-4.85
8565.38,-6.18
8651.03,-7.67
8737.54,-9.21
8824.92,-10.21
8913.17,-9.83
9002.30,-8.92
9092.32,-7.26
9183.25,-5.76
9275.08,-4.37
9367.83,-3.05
9461.51,-1.70
9556.12,-0.41
9651.68,0.74
9748.20,1.65
9845.68,2.02
9944.14,2.08
10043.58,1.90
10144.02,1.59
10245.46,1.32
10347.91,1.14
10451.39,1.05
10555.91,1.15
10661.46,1.34
10768.08,1.62
10875.76,1.97
10984.52,2.31
11094.36,2.62
11205.31,2.88
11317.36,3.29
11430.53,3.77
11544.84,4.17
11660.29,4.34
11776.89,4.23
11894.66,3.57
12013.60,2.85
12133.74,1.99
12255.08,0.89
12377.63,-0.41
12501.41,-2.03
12626.42,-4.01
12752.68,-6.14
12880.21,-8.30
13009.01,-10.46
13139.10,-12.63
13270.49,-13.38
13403.20,-13.27
13537.23,-12.65
13672.60,-12.66
13809.33,-13.31
13947.42,-15.33
14086.90,-15.15
14227.77,-13.65
14370.04,-11.92
14513.74,-10.10
14658.88,-9.54
14805.47,-9.34
14953.52,-9.75
15103.06,-10.39
15254.09,-11.14
15406.63,-11.52
15560.70,-11.71
15716.30,-11.61
15873.47,-10.83
16032.20,-9.76
16192.52,-8.28
16354.45,-7.61
16517.99,-7.50
16683.17,-8.42
16850.01,-9.48
17018.51,-10.62
17188.69,-11.59
17360.58,-12.44
17534.18,-13.20
17709.53,-13.87
17886.62,-14.17
18065.49,-14.10
18246.14,-13.58
18428.60,-13.82
18612.89,-14.56
18799.02,-23.96
18987.01,-56.89
19176.88,-65.04
19368.65,-69.06
19562.33,-70.63
19757.96,-70.03
19955.54,-69.43
