frequency,raw
20.00,7.79
20.20,7.77
20.40,7.75
20.61,7.74
20.81,7.72
21.02,7.70
21.23,7.68
21.44,7.66
21.66,7.65
21.87,7.64
22.09,7.63
22.31,7.62
22.54,7.61
22.76,7.60
22.99,7.58
23.22,7.56
23.45,7.54
23.69,7.52
23.92,7.50
24.16,7.47
24.40,7.45
24.65,7.43
24.89,7.41
25.14,7.39
25.39,7.37
25.65,7.35
25.91,7.33
26.16,7.31
26.43,7.28
26.69,7.26
26.96,7.23
27.23,7.20
27.50,7.16
27.77,7.13
28.05,7.10
28.33,7.07
28.62,7.04
28.90,7.01
29.19,6.98
29.48,6.95
29.78,6.92
30.08,6.90
30.38,6.87
30.68,6.84
30.99,6.80
31.30,6.77
31.61,6.75
31.93,6.72
32.24,6.69
32.57,6.67
32.89,6.64
33.22,6.62
33.55,6.60
33.89,6.58
34.23,6.56
34.57,6.54
34.92,6.52
35.27,6.49
35.62,6.46
35.97,6.43
36.33,6.40
36.70,6.38
37.06,6.35
37.43,6.33
37.81,6.30
38.19,6.28
38.57,6.25
38.95,6.23
39.34,6.21
39.74,6.19
40.14,6.17
40.54,6.15
40.94,6.13
41.35,6.10
41.76,6.08
42.18,6.06
42.60,6.05
43.03,6.03
43.46,6.02
43.90,6.00
44.33,5.98
44.78,5.96
45.23,5.95
45.68,5.93
46.13,5.92
46.60,5.90
47.06,5.89
47.53,5.88
48.01,5.87
48.49,5.86
48.97,5.85
49.46,5.85
49.96,5.84
50.46,5.83
50.96,5.82
51.47,5.81
51.99,5.81
52.51,5.80
53.03,5.80
53.56,5.80
54.10,5.80
54.64,5.80
55.18,5.80
55.74,5.80
56.29,5.81
56.86,5.82
57.42,5.82
58.00,5.83
58.58,5.83
59.16,5.83
59.76,5.84
60.35,5.85
60.96,5.86
61.57,5.88
62.18,5.89
62.80,5.90
63.43,5.92
64.07,5.93
64.71,5.95
65.35,5.96
66.01,5.98
66.67,5.99
67.33,6.01
68.01,6.02
68.69,6.04
69.37,6.05
70.07,6.05
70.77,6.05
71.48,6.05
72.19,6.05
72.91,6.04
73.64,6.03
74.38,6.01
75.12,5.99
75.87,5.96
76.63,5.92
77.40,5.88
78.17,5.83
78.95,5.78
79.74,5.73
80.54,5.66
81.35,5.59
82.16,5.51
82.98,5.43
83.81,5.34
84.65,5.25
85.50,5.15
86.35,5.04
87.22,4.93
88.09,4.81
88.97,4.69
89.86,4.56
90.76,4.43
91.66,4.29
92.58,4.15
93.51,4.00
94.44,3.85
95.39,3.70
96.34,3.54
97.30,3.37
98.28,3.20
99.26,3.03
100.25,2.85
101.25,2.67
102.27,2.49
103.29,2.30
104.32,2.12
105.37,1.93
106.42,1.74
107.48,1.54
108.56,1.35
109.64,1.16
110.74,0.97
111.85,0.79
112.97,0.61
114.10,0.44
115.24,0.27
116.39,0.12
117.55,-0.03
118.73,-0.16
119.92,-0.28
121.12,-0.40
122.33,-0.50
123.55,-0.59
124.79,-0.67
126.03,-0.74
127.29,-0.79
128.57,-0.83
129.85,-0.87
131.15,-0.90
132.46,-0.93
133.79,-0.94
135.12,-0.96
136.48,-0.98
137.84,-0.99
139.22,-1.01
140.61,-1.03
142.02,-1.05
143.44,-1.07
144.87,-1.09
146.32,-1.12
147.78,-1.15
149.26,-1.18
150.75,-1.21
152.26,-1.24
153.78,-1.27
155.32,-1.31
156.88,-1.35
158.44,-1.40
160.03,-1.46
161.63,-1.58
163.24,-1.68
164.88,-1.78
166.53,-1.82
168.19,-1.85
169.87,-1.87
171.57,-1.90
173.29,-1.94
175.02,-1.98
176.77,-2.02
178.54,-2.07
180.32,-2.12
182.13,-2.16
183.95,-2.21
185.79,-2.26
187.65,-2.30
189.52,-2.35
191.42,-2.40
193.33,-2.44
195.27,-2.48
197.22,-2.53
199.19,-2.57
201.18,-2.61
203.19,-2.66
205.23,-2.69
207.28,-2.72
209.35,-2.74
211.44,-2.76
213.56,-2.78
215.69,-2.80
217.85,-2.82
220.03,-2.83
222.23,-2.85
224.45,-2.88
226.70,-2.91
228.96,-2.93
231.25,-2.94
233.57,-2.96
235.90,-3.00
238.26,-3.05
240.64,-3.09
243.05,-3.11
245.48,-3.08
247.93,-3.04
250.41,-2.97
252.92,-2.87
255.45,-2.77
258.00,-2.67
260.58,-2.61
263.19,-2.57
265.82,-2.55
268.48,-2.55
271.16,-2.55
273.87,-2.56
276.61,-2.57
279.38,-2.58
282.17,-2.60
284.99,-2.61
287.84,-2.62
290.72,-2.64
293.63,-2.65
296.57,-2.66
299.53,-2.67
302.53,-2.68
305.55,-2.70
308.61,-2.72
311.69,-2.73
314.81,-2.76
317.96,-2.78
321.14,-2.80
324.35,-2.83
327.59,-2.86
330.87,-2.89
334.18,-2.91
337.52,-2.91
340.90,-2.92
344.30,-2.95
347.75,-3.00
351.23,-3.02
354.74,-3.01
358.28,-2.98
361.87,-2.94
365.49,-2.87
369.14,-2.80
372.83,-2.76
376.56,-2.73
380.33,-2.72
384.13,-2.71
387.97,-2.70
391.85,-2.68
395.77,-2.67
399.73,-2.65
403.72,-2.64
407.76,-2.63
411.84,-2.62
415.96,-2.60
420.12,-2.59
424.32,-2.58
428.56,-2.57
432.85,-2.55
437.18,-2.54
441.55,-2.52
445.96,-2.51
450.42,-2.49
454.93,-2.48
459.48,-2.46
464.07,-2.44
468.71,-2.42
473.40,-2.40
478.13,-2.38
482.91,-2.36
487.74,-2.33
492.62,-2.31
497.55,-2.28
502.52,-2.24
507.55,-2.19
512.62,-2.14
517.75,-2.08
522.93,-2.02
528.16,-1.96
533.44,-1.90
538.77,-1.85
544.16,-1.80
549.60,-1.76
555.10,-1.72
560.65,-1.68
566.25,-1.65
571.92,-1.63
577.64,-1.60
583.41,-1.58
589.25,-1.56
595.14,-1.55
601.09,-1.54
607.10,-1.53
613.17,-1.53
619.30,-1.53
625.50,-1.52
631.75,-1.51
638.07,-1.50
644.45,-1.49
650.89,-1.47
657.40,-1.43
663.98,-1.39
670.62,-1.34
677.32,-1.28
684.10,-1.21
690.94,-1.13
697.85,-1.04
704.83,-0.94
711.87,-0.84
718.99,-0.73
726.18,-0.62
733.44,-0.49
740.78,-0.37
748.19,-0.23
755.67,-0.11
763.23,0.02
770.86,0.14
778.57,0.26
786.35,0.37
794.22,0.47
802.16,0.55
810.18,0.61
818.28,0.65
826.46,0.68
834.73,0.69
843.08,0.69
851.51,0.67
860.02,0.63
868.62,0.57
877.31,0.49
886.08,0.41
894.94,0.30
903.89,0.20
912.93,0.08
922.06,-0.03
931.28,-0.13
940.59,-0.22
950.00,-0.29
959.50,-0.32
969.09,-0.30
978.78,-0.26
988.57,-0.17
998.46,-0.03
1008.44,0.16
1018.53,0.36
1028.71,0.59
1039.00,0.83
1049.39,1.06
1059.88,1.29
1070.48,1.47
1081.19,1.63
1092.00,1.77
1102.92,1.93
1113.95,2.07
1125.09,2.14
1136.34,2.15
1147.70,2.07
1159.18,1.98
1170.77,1.89
1182.48,1.92
1194.30,1.85
1206.25,1.78
1218.31,1.73
1230.49,1.76
1242.80,1.78
1255.22,1.61
1267.78,1.42
1280.45,1.24
1293.26,1.21
1306.19,1.17
1319.25,1.06
1332.45,0.80
1345.77,0.56
1359.23,0.35
1372.82,0.17
1386.55,0.03
1400.41,-0.08
1414.42,-0.13
1428.56,-0.19
1442.85,-0.11
1457.28,0.13
1471.85,0.50
1486.57,0.89
1501.43,1.26
1516.45,1.45
1531.61,1.60
1546.93,1.68
1562.40,1.77
1578.02,1.87
1593.80,1.99
1609.74,2.12
1625.84,2.25
1642.10,2.41
1658.52,2.56
1675.10,2.69
1691.85,2.79
1708.77,2.89
1725.86,2.97
1743.12,3.06
1760.55,3.14
1778.15,3.22
1795.94,3.31
1813.90,3.41
1832.03,3.51
1850.36,3.62
1868.86,3.74
1887.55,3.87
1906.42,4.00
1925.49,4.15
1944.74,4.31
1964.19,4.49
1983.83,4.71
2003.67,4.95
2023.71,5.23
2043.94,5.53
2064.38,5.82
2085.03,6.07
2105.88,6.22
2126.94,6.33
2148.20,6.46
2169.69,6.60
2191.38,6.75
2213.30,6.90
2235.43,7.07
2257.78,7.27
2280.36,7.52
2303.17,7.83
2326.20,8.23
2349.46,8.57
2372.95,8.87
2396.68,9.14
2420.65,9.37
2444.86,9.59
2469.31,9.79
2494.00,9.98
2518.94,10.16
2544.13,10.32
2569.57,10.46
2595.27,10.61
2621.22,10.76
2647.43,10.90
2673.90,11.03
2700.64,11.15
2727.65,11.25
2754.93,11.35
2782.48,11.43
2810.30,11.46
2838.40,11.43
2866.79,11.36
2895.46,11.27
2924.41,11.11
2953.65,10.90
2983.19,10.54
3013.02,10.17
3043.15,9.77
3073.58,9.36
3104.32,8.93
3135.36,8.49
3166.72,8.02
3198.38,7.54
3230.37,7.04
3262.67,6.52
3295.30,5.98
3328.25,5.42
3361.53,4.86
3395.15,4.30
3429.10,3.75
3463.39,3.21
3498.03,2.71
3533.01,2.25
3568.34,1.82
3604.02,1.42
3640.06,1.06
3676.46,0.73
3713.22,0.46
3750.36,0.26
3787.86,0.21
3825.74,0.18
3864.00,0.28
3902.64,0.53
3941.66,0.79
3981.08,1.17
4020.89,1.64
4061.10,2.19
4101.71,2.80
4142.73,3.41
4184.15,4.04
4226.00,4.70
4268.26,5.36
4310.94,6.02
4354.05,6.61
4397.59,7.09
4441.56,7.51
4485.98,7.74
4530.84,7.87
4576.15,7.87
4621.91,7.82
4668.13,7.66
4714.81,7.46
4761.96,7.24
4809.58,6.97
4857.67,6.65
4906.25,6.32
4955.31,5.98
5004.87,5.67
5054.91,5.40
5105.46,5.15
5156.52,4.93
5208.08,4.76
5260.16,4.61
5312.77,4.48
5365.89,4.39
5419.55,4.35
5473.75,4.35
5528.49,4.38
5583.77,4.47
5639.61,4.62
5696.00,4.78
5752.96,5.03
5810.49,5.29
5868.60,5.63
5927.28,6.03
5986.56,6.50
6046.42,7.11
6106.89,7.80
6167.96,8.58
6229.64,9.39
6291.93,10.16
6354.85,10.78
6418.40,11.27
6482.58,11.52
6547.41,11.49
6612.88,11.31
6679.01,10.90
6745.80,10.39
6813.26,9.83
6881.39,9.22
6950.21,8.64
7019.71,8.09
7089.91,7.59
7160.81,7.18
7232.41,6.83
7304.74,6.52
7377.79,6.30
7451.56,6.15
7526.08,6.08
7601.34,6.08
7677.35,6.21
7754.13,6.40
7831.67,6.81
7909.98,7.30
7989.08,7.94
8068.98,8.67
8149.67,9.33
8231.16,9.88
8313.47,9.96
8396.61,9.74
8480.57,8.92
8565.38,7.71
8651.03,6.29
8737.54,4.74
8824.92,3.21
8913.17,1.73
9002.30,0.28
9092.32,-1.21
9183.25,-2.69
9275.08,-4.11
9367.83,-5.38
9461.51,-6.49
9556.12,-7.55
9651.68,-8.63
9748.20,-9.79
9845.68,-10.08
9944.14,-9.26
10043.58,-7.85
10144.02,-6.45
10245.46,-6.16
10347.91,-6.43
10451.39,-7.32
10555.91,-8.67
10661.46,-9.77
10768.08,-10.20
10875.76,-8.31
10984.52,-6.37
11094.36,-4.58
11205.31,-3.19
11317.36,-2.18
11430.53,-1.39
11544.84,-1.30
11660.29,-1.87
11776.89,-2.94
11894.66,-4.18
12013.60,-5.34
12133.74,-6.15
12255.08,-6.92
12377.63,-7.91
12501.41,-8.61
12626.42,-8.67
12752.68,-8.27
12880.21,-7.15
13009.01,-5.66
13139.10,-4.17
13270.49,-2.14
13403.20,-0.14
13537.23,1.36
13672.60,2.67
13809.33,3.80
13947.42,4.86
14086.90,5.49
14227.77,5.85
14370.04,5.44
14513.74,4.08
14658.88,1.33
14805.47,-1.75
14953.52,-5.36
15103.06,-10.11
15254.09,-15.48
15406.63,-25.39
15560.70,-37.57
15716.30,-53.26
15873.47,-61.37
16032.20,-65.73
16192.52,-63.59
16354.45,-65.30
16517.99,-68.41
16683.17,-65.52
16850.01,-64.41
17018.51,-64.35
17188.69,-63.04
17360.58,-65.27
17534.18,-68.18
17709.53,-65.84
17886.62,-69.20
18065.49,-69.45
18246.14,-61.30
18428.60,-61.11
18612.89,-62.98
18799.02,-66.14
18987.01,-69.49
19176.88,-65.11
19368.65,-62.91
19562.33,-63.19
19757.96,-65.15
19955.54,-67.11
