frequency,raw
20.00,-7.13
20.20,-7.00
20.40,-6.88
20.61,-6.76
20.81,-6.65
21.02,-6.54
21.23,-6.43
21.44,-6.31
21.66,-6.18
21.87,-6.04
22.09,-5.88
22.31,-5.73
22.54,-5.58
22.76,-5.43
22.99,-5.29
23.22,-5.15
23.45,-5.00
23.69,-4.85
23.92,-4.69
24.16,-4.53
24.40,-4.37
24.65,-4.21
24.89,-4.06
25.14,-3.92
25.39,-3.80
25.65,-3.69
25.91,-3.58
26.16,-3.47
26.43,-3.36
26.69,-3.24
26.96,-3.12
27.23,-3.01
27.50,-2.90
27.77,-2.79
28.05,-2.70
28.33,-2.61
28.62,-2.52
28.90,-2.43
29.19,-2.34
29.48,-2.25
29.78,-2.16
30.08,-2.08
30.38,-2.00
30.68,-1.92
30.99,-1.84
31.30,-1.76
31.61,-1.67
31.93,-1.59
32.24,-1.52
32.57,-1.46
32.89,-1.40
33.22,-1.35
33.55,-1.30
33.89,-1.24
34.23,-1.19
34.57,-1.13
34.92,-1.09
35.27,-1.04
35.62,-0.98
35.97,-0.93
36.33,-0.86
36.70,-0.80
37.06,-0.75
37.43,-0.70
37.81,-0.67
38.19,-0.64
38.57,-0.62
38.95,-0.58
39.34,-0.55
39.74,-0.51
40.14,-0.47
40.54,-0.44
40.94,-0.43
41.35,-0.43
41.76,-0.44
42.18,-0.44
42.60,-0.44
43.03,-0.43
43.46,-0.42
43.90,-0.41
44.33,-0.42
44.78,-0.42
45.23,-0.43
45.68,-0.44
46.13,-0.44
46.60,-0.46
47.06,-0.47
47.53,-0.48
48.01,-0.48
48.49,-0.48
48.97,-0.49
49.46,-0.49
49.96,-0.51
50.46,-0.54
50.96,-0.57
51.47,-0.59
51.99,-0.62
52.51,-0.66
53.03,-0.71
53.56,-0.75
54.10,-0.79
54.64,-0.82
55.18,-0.86
55.74,-0.90
56.29,-0.94
56.86,-0.98
57.42,-1.02
58.00,-1.06
58.58,-1.12
59.16,-1.17
59.76,-1.22
60.35,-1.26
60.96,-1.30
61.57,-1.31
62.18,-1.31
62.80,-1.33
63.43,-1.36
64.07,-1.40
64.71,-1.44
65.35,-1.47
66.01,-1.50
66.67,-1.49
67.33,-1.47
68.01,-1.46
68.69,-1.46
69.37,-1.45
70.07,-1.44
70.77,-1.43
71.48,-1.40
72.19,-1.37
72.91,-1.33
73.64,-1.30
74.38,-1.27
75.12,-1.23
75.87,-1.19
76.63,-1.16
77.40,-1.12
78.17,-1.08
78.95,-1.05
79.74,-1.02
80.54,-0.98
81.35,-0.95
82.16,-0.92
82.98,-0.89
83.81,-0.86
84.65,-0.84
85.50,-0.82
86.35,-0.80
87.22,-0.78
88.09,-0.75
88.97,-0.73
89.86,-0.72
90.76,-0.71
91.66,-0.70
92.58,-0.68
93.51,-0.65
94.44,-0.65
95.39,-0.65
96.34,-0.64
97.30,-0.61
98.28,-0.60
99.26,-0.60
100.25,-0.58
101.25,-0.58
102.27,-0.58
103.29,-0.57
104.32,-0.57
105.37,-0.56
106.42,-0.56
107.48,-0.58
108.56,-0.58
109.64,-0.59
110.74,-0.61
111.85,-0.64
112.97,-0.68
114.10,-0.73
115.24,-0.77
116.39,-0.80
117.55,-0.82
118.73,-0.83
119.92,-0.83
121.12,-0.83
122.33,-0.83
123.55,-0.80
124.79,-0.78
126.03,-0.75
127.29,-0.71
128.57,-0.66
129.85,-0.63
131.15,-0.60
132.46,-0.56
133.79,-0.53
135.12,-0.50
136.48,-0.48
137.84,-0.45
139.22,-0.43
140.61,-0.41
142.02,-0.38
143.44,-0.36
144.87,-0.32
146.32,-0.30
147.78,-0.28
149.26,-0.26
150.75,-0.24
152.26,-0.21
153.78,-0.19
155.32,-0.17
156.88,-0.16
158.44,-0.14
160.03,-0.11
161.63,-0.12
163.24,-0.11
164.88,-0.11
166.53,-0.10
168.19,-0.09
169.87,-0.09
171.57,-0.11
173.29,-0.11
175.02,-0.11
176.77,-0.07
178.54,-0.02
180.32,0.05
182.13,0.12
183.95,0.17
185.79,0.22
187.65,0.27
189.52,0.30
191.42,0.35
193.33,0.39
195.27,0.43
197.22,0.46
199.19,0.48
201.18,0.47
203.19,0.45
205.23,0.53
207.28,0.61
209.35,0.69
211.44,0.75
213.56,0.79
215.69,0.83
217.85,0.87
220.03,0.91
222.23,0.94
224.45,0.96
226.70,0.99
228.96,1.01
231.25,1.02
233.57,1.03
235.90,1.04
238.26,1.05
240.64,1.06
243.05,1.09
245.48,1.11
247.93,1.11
250.41,1.10
252.92,1.09
255.45,1.07
258.00,1.05
260.58,1.04
263.19,1.04
265.82,1.06
268.48,1.06
271.16,1.05
273.87,1.02
276.61,0.99
279.38,0.95
282.17,0.91
284.99,0.86
287.84,0.82
290.72,0.78
293.63,0.76
296.57,0.73
299.53,0.70
302.53,0.67
305.55,0.64
308.61,0.63
311.69,0.62
314.81,0.61
317.96,0.62
321.14,0.61
324.35,0.61
327.59,0.60
330.87,0.60
334.18,0.59
337.52,0.58
340.90,0.58
344.30,0.59
347.75,0.61
351.23,0.63
354.74,0.65
358.28,0.68
361.87,0.70
365.49,0.72
369.14,0.66
372.83,0.57
376.56,0.47
380.33,0.37
384.13,0.32
387.97,0.35
391.85,0.53
395.77,0.76
399.73,1.14
403.72,1.56
407.76,1.93
411.84,2.25
415.96,2.45
420.12,2.58
424.32,2.66
428.56,2.69
432.85,2.68
437.18,2.67
441.55,2.63
445.96,2.59
450.42,2.55
454.93,2.51
459.48,2.47
464.07,2.43
468.71,2.40
473.40,2.38
478.13,2.36
482.91,2.34
487.74,2.33
492.62,2.31
497.55,2.30
502.52,2.29
507.55,2.27
512.62,2.26
517.75,2.24
522.93,2.22
528.16,2.20
533.44,2.17
538.77,2.15
544.16,2.13
549.60,2.10
555.10,2.07
560.65,2.04
566.25,2.01
571.92,1.98
577.64,1.95
583.41,1.93
589.25,1.90
595.14,1.88
601.09,1.85
607.10,1.82
613.17,1.79
619.30,1.76
625.50,1.72
631.75,1.68
638.07,1.64
644.45,1.59
650.89,1.53
657.40,1.47
663.98,1.40
670.62,1.34
677.32,1.26
684.10,1.19
690.94,1.10
697.85,1.02
704.83,0.93
711.87,0.83
718.99,0.73
726.18,0.65
733.44,0.58
740.78,0.53
748.19,0.52
755.67,0.52
763.23,0.52
770.86,0.53
778.57,0.52
786.35,0.50
794.22,0.47
802.16,0.43
810.18,0.38
818.28,0.33
826.46,0.28
834.73,0.25
843.08,0.23
851.51,0.22
860.02,0.22
868.62,0.24
877.31,0.25
886.08,0.26
894.94,0.27
903.89,0.28
912.93,0.28
922.06,0.27
931.28,0.26
940.59,0.24
950.00,0.21
959.50,0.18
969.09,0.14
978.78,0.10
988.57,0.06
998.46,0.01
1008.44,-0.04
1018.53,-0.09
1028.71,-0.15
1039.00,-0.20
1049.39,-0.26
1059.88,-0.32
1070.48,-0.38
1081.19,-0.44
1092.00,-0.50
1102.92,-0.57
1113.95,-0.64
1125.09,-0.70
1136.34,-0.76
1147.70,-0.80
1159.18,-0.82
1170.77,-0.84
1182.48,-0.86
1194.30,-0.87
1206.25,-0.88
1218.31,-0.88
1230.49,-0.88
1242.80,-0.88
1255.22,-0.88
1267.78,-0.88
1280.45,-0.88
1293.26,-0.88
1306.19,-0.89
1319.25,-0.90
1332.45,-0.91
1345.77,-0.93
1359.23,-0.94
1372.82,-0.96
1386.55,-0.99
1400.41,-1.03
1414.42,-1.09
1428.56,-1.14
1442.85,-1.18
1457.28,-1.21
1471.85,-1.21
1486.57,-1.16
1501.43,-1.08
1516.45,-0.94
1531.61,-0.82
1546.93,-0.72
1562.40,-0.65
1578.02,-0.59
1593.80,-0.57
1609.74,-0.53
1625.84,-0.49
1642.10,-0.44
1658.52,-0.37
1675.10,-0.29
1691.85,-0.16
1708.77,-0.00
1725.86,0.17
1743.12,0.34
1760.55,0.49
1778.15,0.62
1795.94,0.72
1813.90,0.81
1832.03,0.89
1850.36,0.97
1868.86,1.06
1887.55,1.16
1906.42,1.25
1925.49,1.29
1944.74,1.26
1964.19,1.25
1983.83,1.32
2003.67,1.46
2023.71,1.64
2043.94,1.82
2064.38,2.00
2085.03,2.17
2105.88,2.32
2126.94,2.47
2148.20,2.62
2169.69,2.77
2191.38,2.92
2213.30,3.08
2235.43,3.24
2257.78,3.41
2280.36,3.57
2303.17,3.74
2326.20,3.88
2349.46,4.04
2372.95,4.19
2396.68,4.33
2420.65,4.49
2444.86,4.66
2469.31,4.83
2494.00,5.02
2518.94,5.23
2544.13,5.44
2569.57,5.65
2595.27,5.85
2621.22,6.04
2647.43,6.22
2673.90,6.41
2700.64,6.59
2727.65,6.76
2754.93,6.92
2782.48,7.06
2810.30,7.20
2838.40,7.32
2866.79,7.45
2895.46,7.56
2924.41,7.66
2953.65,7.74
2983.19,7.78
3013.02,7.79
3043.15,7.76
3073.58,7.66
3104.32,7.53
3135.36,7.52
3166.72,7.49
3198.38,7.42
3230.37,7.42
3262.67,7.39
3295.30,7.34
3328.25,7.26
3361.53,7.17
3395.15,7.07
3429.10,6.96
3463.39,6.84
3498.03,6.71
3533.01,6.59
3568.34,6.47
3604.02,6.35
3640.06,6.23
3676.46,6.11
3713.22,5.99
3750.36,5.87
3787.86,5.77
3825.74,5.67
3864.00,5.56
3902.64,5.47
3941.66,5.38
3981.08,5.29
4020.89,5.21
4061.10,5.15
4101.71,5.10
4142.73,5.07
4184.15,5.06
4226.00,5.10
4268.26,5.15
4310.94,5.23
4354.05,5.30
4397.59,5.28
4441.56,5.19
4485.98,4.93
4530.84,4.63
4576.15,4.37
4621.91,4.15
4668.13,4.04
4714.81,3.94
4761.96,3.83
4809.58,3.67
4857.67,3.47
4906.25,3.21
4955.31,2.96
5004.87,2.73
5054.91,2.63
5105.46,2.59
5156.52,2.61
5208.08,2.67
5260.16,2.68
5312.77,2.64
5365.89,2.48
5419.55,2.41
5473.75,2.43
5528.49,2.52
5583.77,2.57
5639.61,2.64
5696.00,2.71
5752.96,3.02
5810.49,3.39
5868.60,3.97
5927.28,4.59
5986.56,5.27
6046.42,5.88
6106.89,6.36
6167.96,6.65
6229.64,6.70
6291.93,6.51
6354.85,6.10
6418.40,5.61
6482.58,5.01
6547.41,4.38
6612.88,3.75
6679.01,3.13
6745.80,2.54
6813.26,1.99
6881.39,1.51
6950.21,1.21
7019.71,1.08
7089.91,1.18
7160.81,1.48
7232.41,1.85
7304.74,2.29
7377.79,2.75
7451.56,3.20
7526.08,3.64
7601.34,4.06
7677.35,4.48
7754.13,4.90
7831.67,5.44
7909.98,6.06
7989.08,6.80
8068.98,7.60
8149.67,8.37
8231.16,9.05
8313.47,9.14
8396.61,8.86
8480.57,7.77
8565.38,6.32
8651.03,4.78
8737.54,3.26
8824.92,1.97
8913.17,0.88
9002.30,-0.13
9092.32,-0.96
9183.25,-1.76
9275.08,-2.54
9367.83,-3.31
9461.51,-3.96
9556.12,-4.66
9651.68,-5.45
9748.20,-6.30
9845.68,-6.95
9944.14,-7.35
10043.58,-7.51
10144.02,-7.53
10245.46,-7.33
10347.91,-7.05
10451.39,-6.70
10555.91,-6.16
10661.46,-5.42
10768.08,-4.47
10875.76,-3.29
10984.52,-2.19
11094.36,-1.27
11205.31,-0.74
11317.36,-1.01
11430.53,-1.57
11544.84,-2.55
11660.29,-3.61
11776.89,-4.83
11894.66,-6.72
12013.60,-8.73
12133.74,-8.55
12255.08,-6.97
12377.63,-5.39
12501.41,-4.40
12626.42,-4.29
12752.68,-4.51
12880.21,-4.71
13009.01,-4.86
13139.10,-5.00
13270.49,-4.72
13403.20,-4.28
13537.23,-3.46
13672.60,-2.58
13809.33,-1.72
13947.42,-1.67
14086.90,-2.67
14227.77,-4.31
14370.04,-6.20
14513.74,-8.13
14658.88,-8.06
14805.47,-7.72
14953.52,-6.93
15103.06,-6.21
15254.09,-5.75
15406.63,-13.49
15560.70,-27.87
15716.30,-52.52
15873.47,-61.43
16032.20,-65.00
16192.52,-64.57
16354.45,-64.44
16517.99,-64.62
16683.17,-66.04
16850.01,-67.28
17018.51,-68.62
17188.69,-71.84
17360.58,-70.32
17534.18,-66.86
17709.53,-66.36
17886.62,-67.31
18065.49,-68.26
18246.14,-68.43
18428.60,-68.10
18612.89,-66.45
18799.02,-64.59
18987.01,-64.51
19176.88,-68.09
19368.65,-69.29
19562.33,-68.53
19757.96,-67.09
19955.54,-65.65
