frequency,raw
20.00,4.55
20.20,4.58
20.40,4.60
20.61,4.62
20.81,4.64
21.02,4.66
21.23,4.67
21.44,4.70
21.66,4.73
21.87,4.76
22.09,4.79
22.31,4.82
22.54,4.84
22.76,4.85
22.99,4.86
23.22,4.86
23.45,4.86
23.69,4.87
23.92,4.89
24.16,4.92
24.40,4.97
24.65,5.02
24.89,5.08
25.14,5.13
25.39,5.17
25.65,5.20
25.91,5.21
26.16,5.22
26.43,5.22
26.69,5.22
26.96,5.22
27.23,5.22
27.50,5.24
27.77,5.25
28.05,5.26
28.33,5.27
28.62,5.28
28.90,5.28
29.19,5.29
29.48,5.29
29.78,5.30
30.08,5.30
30.38,5.30
30.68,5.30
30.99,5.29
31.30,5.28
31.61,5.28
31.93,5.27
32.24,5.27
32.57,5.27
32.89,5.27
33.22,5.27
33.55,5.27
33.89,5.27
34.23,5.27
34.57,5.26
34.92,5.27
35.27,5.27
35.62,5.27
35.97,5.26
36.33,5.25
36.70,5.22
37.06,5.20
37.43,5.17
37.81,5.16
38.19,5.15
38.57,5.14
38.95,5.13
39.34,5.12
39.74,5.11
40.14,5.09
40.54,5.08
40.94,5.06
41.35,5.03
41.76,5.01
42.18,4.98
42.60,4.95
43.03,4.93
43.46,4.91
43.90,4.89
44.33,4.86
44.78,4.83
45.23,4.80
45.68,4.77
46.13,4.73
46.60,4.69
47.06,4.64
47.53,4.58
48.01,4.54
48.49,4.49
48.97,4.44
49.46,4.39
49.96,4.33
50.46,4.27
50.96,4.21
51.47,4.15
51.99,4.08
52.51,4.01
53.03,3.94
53.56,3.88
54.10,3.81
54.64,3.76
55.18,3.70
55.74,3.63
56.29,3.57
56.86,3.52
57.42,3.46
58.00,3.41
58.58,3.37
59.16,3.33
59.76,3.31
60.35,3.27
60.96,3.21
61.57,3.16
62.18,3.13
62.80,3.11
63.43,3.09
64.07,3.07
64.71,3.06
65.35,3.05
66.01,3.04
66.67,3.04
67.33,3.05
68.01,3.06
68.69,3.08
69.37,3.09
70.07,3.11
70.77,3.12
71.48,3.14
72.19,3.16
72.91,3.17
73.64,3.18
74.38,3.18
75.12,3.19
75.87,3.20
76.63,3.20
77.40,3.19
78.17,3.18
78.95,3.17
79.74,3.14
80.54,3.12
81.35,3.10
82.16,3.07
82.98,3.03
83.81,2.98
84.65,2.93
85.50,2.87
86.35,2.81
87.22,2.74
88.09,2.66
88.97,2.57
89.86,2.49
90.76,2.39
91.66,2.29
92.58,2.19
93.51,2.08
94.44,1.96
95.39,1.83
96.34,1.71
97.30,1.56
98.28,1.42
99.26,1.26
100.25,1.10
101.25,0.93
102.27,0.75
103.29,0.57
104.32,0.37
105.37,0.17
106.42,-0.03
107.48,-0.21
108.56,-0.41
109.64,-0.61
110.74,-0.82
111.85,-1.02
112.97,-1.21
114.10,-1.40
115.24,-1.57
116.39,-1.72
117.55,-1.88
118.73,-2.01
119.92,-2.13
121.12,-2.25
122.33,-2.35
123.55,-2.42
124.79,-2.48
126.03,-2.49
127.29,-2.47
128.57,-2.40
129.85,-2.28
131.15,-2.17
132.46,-2.01
133.79,-1.83
135.12,-1.64
136.48,-1.45
137.84,-1.27
139.22,-1.11
140.61,-0.96
142.02,-0.84
143.44,-0.73
144.87,-0.64
146.32,-0.60
147.78,-0.56
149.26,-0.55
150.75,-0.56
152.26,-0.59
153.78,-0.66
155.32,-0.75
156.88,-0.89
158.44,-1.07
160.03,-1.29
161.63,-1.63
163.24,-1.80
164.88,-1.81
166.53,-1.49
168.19,-1.20
169.87,-0.98
171.57,-0.88
173.29,-0.83
175.02,-0.82
176.77,-0.82
178.54,-0.83
180.32,-0.83
182.13,-0.86
183.95,-0.88
185.79,-0.90
187.65,-0.92
189.52,-0.94
191.42,-0.96
193.33,-0.98
195.27,-1.00
197.22,-1.04
199.19,-1.07
201.18,-1.10
203.19,-1.11
205.23,-1.11
207.28,-1.13
209.35,-1.17
211.44,-1.21
213.56,-1.25
215.69,-1.30
217.85,-1.35
220.03,-1.40
222.23,-1.46
224.45,-1.53
226.70,-1.59
228.96,-1.62
231.25,-1.63
233.57,-1.64
235.90,-1.68
238.26,-1.75
240.64,-1.81
243.05,-1.85
245.48,-1.90
247.93,-1.97
250.41,-2.04
252.92,-2.12
255.45,-2.20
258.00,-2.27
260.58,-2.36
263.19,-2.44
265.82,-2.53
268.48,-2.62
271.16,-2.71
273.87,-2.80
276.61,-2.89
279.38,-2.97
282.17,-3.06
284.99,-3.15
287.84,-3.23
290.72,-3.31
293.63,-3.39
296.57,-3.47
299.53,-3.55
302.53,-3.63
305.55,-3.71
308.61,-3.78
311.69,-3.86
314.81,-3.93
317.96,-4.00
321.14,-4.07
324.35,-4.13
327.59,-4.18
330.87,-4.22
334.18,-4.25
337.52,-4.29
340.90,-4.34
344.30,-4.37
347.75,-4.36
351.23,-4.33
354.74,-4.30
358.28,-4.26
361.87,-4.20
365.49,-4.13
369.14,-4.11
372.83,-4.13
376.56,-4.16
380.33,-4.19
384.13,-4.22
387.97,-4.24
391.85,-4.25
395.77,-4.26
399.73,-4.27
403.72,-4.28
407.76,-4.28
411.84,-4.28
415.96,-4.28
420.12,-4.28
424.32,-4.27
428.56,-4.27
432.85,-4.26
437.18,-4.26
441.55,-4.25
445.96,-4.24
450.42,-4.23
454.93,-4.23
459.48,-4.22
464.07,-4.20
468.71,-4.19
473.40,-4.18
478.13,-4.16
482.91,-4.14
487.74,-4.12
492.62,-4.10
497.55,-4.07
502.52,-4.04
507.55,-4.00
512.62,-3.96
517.75,-3.92
522.93,-3.89
528.16,-3.85
533.44,-3.82
538.77,-3.80
544.16,-3.78
549.60,-3.75
555.10,-3.74
560.65,-3.72
566.25,-3.70
571.92,-3.68
577.64,-3.65
583.41,-3.63
589.25,-3.60
595.14,-3.57
601.09,-3.53
607.10,-3.50
613.17,-3.46
619.30,-3.42
625.50,-3.38
631.75,-3.33
638.07,-3.28
644.45,-3.22
650.89,-3.17
657.40,-3.10
663.98,-3.04
670.62,-2.97
677.32,-2.90
684.10,-2.83
690.94,-2.76
697.85,-2.69
704.83,-2.61
711.87,-2.53
718.99,-2.45
726.18,-2.36
733.44,-2.27
740.78,-2.18
748.19,-2.08
755.67,-1.98
763.23,-1.87
770.86,-1.77
778.57,-1.67
786.35,-1.57
794.22,-1.47
802.16,-1.38
810.18,-1.28
818.28,-1.19
826.46,-1.10
834.73,-1.01
843.08,-0.93
851.51,-0.85
860.02,-0.77
868.62,-0.68
877.31,-0.60
886.08,-0.52
894.94,-0.46
903.89,-0.39
912.93,-0.33
922.06,-0.27
931.28,-0.22
940.59,-0.17
950.00,-0.13
959.50,-0.09
969.09,-0.06
978.78,-0.03
988.57,-0.01
998.46,-0.00
1008.44,0.00
1018.53,0.00
1028.71,-0.00
1039.00,-0.02
1049.39,-0.04
1059.88,-0.07
1070.48,-0.11
1081.19,-0.15
1092.00,-0.18
1102.92,-0.18
1113.95,-0.18
1125.09,-0.19
1136.34,-0.22
1147.70,-0.28
1159.18,-0.29
1170.77,-0.30
1182.48,-0.27
1194.30,-0.29
1206.25,-0.31
1218.31,-0.35
1230.49,-0.35
1242.80,-0.35
1255.22,-0.38
1267.78,-0.42
1280.45,-0.44
1293.26,-0.38
1306.19,-0.33
1319.25,-0.33
1332.45,-0.44
1345.77,-0.53
1359.23,-0.60
1372.82,-0.65
1386.55,-0.67
1400.41,-0.67
1414.42,-0.66
1428.56,-0.64
1442.85,-0.54
1457.28,-0.34
1471.85,-0.05
1486.57,0.16
1501.43,0.33
1516.45,0.38
1531.61,0.40
1546.93,0.35
1562.40,0.28
1578.02,0.21
1593.80,0.15
1609.74,0.12
1625.84,0.10
1642.10,0.12
1658.52,0.14
1675.10,0.16
1691.85,0.17
1708.77,0.19
1725.86,0.22
1743.12,0.26
1760.55,0.31
1778.15,0.37
1795.94,0.44
1813.90,0.51
1832.03,0.59
1850.36,0.67
1868.86,0.76
1887.55,0.85
1906.42,0.95
1925.49,1.06
1944.74,1.18
1964.19,1.30
1983.83,1.43
2003.67,1.58
2023.71,1.74
2043.94,1.95
2064.38,2.18
2085.03,2.41
2105.88,2.56
2126.94,2.69
2148.20,2.80
2169.69,2.93
2191.38,3.06
2213.30,3.19
2235.43,3.33
2257.78,3.50
2280.36,3.70
2303.17,3.95
2326.20,4.26
2349.46,4.57
2372.95,4.84
2396.68,5.09
2420.65,5.30
2444.86,5.49
2469.31,5.66
2494.00,5.85
2518.94,6.03
2544.13,6.20
2569.57,6.33
2595.27,6.46
2621.22,6.60
2647.43,6.72
2673.90,6.84
2700.64,6.95
2727.65,7.04
2754.93,7.13
2782.48,7.20
2810.30,7.25
2838.40,7.25
2866.79,7.21
2895.46,7.12
2924.41,6.97
2953.65,6.78
2983.19,6.46
3013.02,6.12
3043.15,5.77
3073.58,5.44
3104.32,5.11
3135.36,4.76
3166.72,4.39
3198.38,4.01
3230.37,3.60
3262.67,3.19
3295.30,2.78
3328.25,2.35
3361.53,1.91
3395.15,1.47
3429.10,1.03
3463.39,0.62
3498.03,0.23
3533.01,-0.11
3568.34,-0.43
3604.02,-0.72
3640.06,-0.99
3676.46,-1.22
3713.22,-1.39
3750.36,-1.49
3787.86,-1.43
3825.74,-1.35
3864.00,-1.14
3902.64,-0.82
3941.66,-0.48
3981.08,-0.06
4020.89,0.43
4061.10,0.97
4101.71,1.53
4142.73,2.09
4184.15,2.66
4226.00,3.27
4268.26,3.89
4310.94,4.52
4354.05,5.06
4397.59,5.50
4441.56,5.88
4485.98,6.07
4530.84,6.15
4576.15,6.11
4621.91,6.01
4668.13,5.80
4714.81,5.59
4761.96,5.36
4809.58,5.05
4857.67,4.70
4906.25,4.34
4955.31,3.98
5004.87,3.64
5054.91,3.35
5105.46,3.10
5156.52,2.88
5208.08,2.70
5260.16,2.55
5312.77,2.43
5365.89,2.34
5419.55,2.29
5473.75,2.27
5528.49,2.29
5583.77,2.36
5639.61,2.49
5696.00,2.64
5752.96,2.85
5810.49,3.08
5868.60,3.36
5927.28,3.70
5986.56,4.11
6046.42,4.64
6106.89,5.26
6167.96,5.97
6229.64,6.71
6291.93,7.45
6354.85,8.10
6418.40,8.64
6482.58,8.99
6547.41,9.08
6612.88,9.01
6679.01,8.70
6745.80,8.30
6813.26,7.85
6881.39,7.36
6950.21,6.91
7019.71,6.49
7089.91,6.12
7160.81,5.82
7232.41,5.57
7304.74,5.35
7377.79,5.21
7451.56,5.12
7526.08,5.09
7601.34,5.12
7677.35,5.28
7754.13,5.49
7831.67,5.91
7909.98,6.41
7989.08,7.02
8068.98,7.69
8149.67,8.32
8231.16,8.83
8313.47,8.92
8396.61,8.73
8480.57,7.98
8565.38,6.81
8651.03,5.43
8737.54,3.88
8824.92,2.26
8913.17,0.59
9002.30,-1.10
9092.32,-2.86
9183.25,-4.55
9275.08,-6.08
9367.83,-7.28
9461.51,-8.01
9556.12,-8.58
9651.68,-8.98
9748.20,-9.20
9845.68,-8.84
9944.14,-8.08
10043.58,-7.15
10144.02,-6.25
10245.46,-6.25
10347.91,-6.80
10451.39,-7.99
10555.91,-9.82
10661.46,-10.80
10768.08,-10.91
10875.76,-9.71
10984.52,-8.01
11094.36,-6.19
11205.31,-4.48
11317.36,-3.32
11430.53,-2.47
11544.84,-2.42
11660.29,-3.01
11776.89,-4.00
11894.66,-5.38
12013.60,-6.74
12133.74,-7.85
12255.08,-8.93
12377.63,-10.19
12501.41,-11.11
12626.42,-11.37
12752.68,-11.20
12880.21,-10.26
13009.01,-8.92
13139.10,-7.57
13270.49,-5.33
13403.20,-3.03
13537.23,-1.28
13672.60,0.18
13809.33,1.39
13947.42,2.46
14086.90,3.03
14227.77,3.31
14370.04,2.81
14513.74,1.35
14658.88,-1.41
14805.47,-4.55
14953.52,-8.34
15103.06,-12.91
15254.09,-17.87
15406.63,-23.74
15560.70,-36.90
15716.30,-61.31
15873.47,-66.60
16032.20,-67.04
16192.52,-69.00
16354.45,-68.81
16517.99,-67.50
16683.17,-66.70
16850.01,-68.40
17018.51,-71.16
17188.69,-68.90
17360.58,-65.80
17534.18,-63.85
17709.53,-68.59
17886.62,-68.08
18065.49,-66.42
18246.14,-65.47
18428.60,-66.87
18612.89,-66.80
18799.02,-66.50
18987.01,-68.26
19176.88,-67.99
19368.65,-67.78
19562.33,-67.90
19757.96,-68.40
19955.54,-68.89
