frequency,raw
20.00,5.64
20.20,5.69
20.40,5.73
20.61,5.78
20.81,5.83
21.02,5.88
21.23,5.93
21.44,5.98
21.66,6.02
21.87,6.07
22.09,6.11
22.31,6.15
22.54,6.19
22.76,6.22
22.99,6.26
23.22,6.29
23.45,6.33
23.69,6.37
23.92,6.41
24.16,6.45
24.40,6.48
24.65,6.51
24.89,6.53
25.14,6.55
25.39,6.56
25.65,6.58
25.91,6.59
26.16,6.61
26.43,6.62
26.69,6.63
26.96,6.64
27.23,6.66
27.50,6.67
27.77,6.68
28.05,6.70
28.33,6.72
28.62,6.74
28.90,6.75
29.19,6.76
29.48,6.76
29.78,6.75
30.08,6.74
30.38,6.73
30.68,6.71
30.99,6.70
31.30,6.69
31.61,6.67
31.93,6.64
32.24,6.61
32.57,6.57
32.89,6.52
33.22,6.48
33.55,6.44
33.89,6.40
34.23,6.36
34.57,6.32
34.92,6.28
35.27,6.25
35.62,6.22
35.97,6.20
36.33,6.19
36.70,6.19
37.06,6.19
37.43,6.18
37.81,6.16
38.19,6.14
38.57,6.12
38.95,6.11
39.34,6.10
39.74,6.08
40.14,6.04
40.54,6.00
40.94,5.93
41.35,5.86
41.76,5.78
42.18,5.71
42.60,5.63
43.03,5.56
43.46,5.51
43.90,5.47
44.33,5.44
44.78,5.40
45.23,5.37
45.68,5.33
46.13,5.29
46.60,5.25
47.06,5.23
47.53,5.20
48.01,5.18
48.49,5.17
48.97,5.17
49.46,5.17
49.96,5.16
50.46,5.15
50.96,5.13
51.47,5.11
51.99,5.05
52.51,4.97
53.03,4.87
53.56,4.75
54.10,4.64
54.64,4.52
55.18,4.39
55.74,4.27
56.29,4.14
56.86,4.02
57.42,3.92
58.00,3.82
58.58,3.73
59.16,3.66
59.76,3.63
60.35,3.62
60.96,3.62
61.57,3.63
62.18,3.67
62.80,3.77
63.43,3.87
64.07,3.97
64.71,4.08
65.35,4.20
66.01,4.33
66.67,4.47
67.33,4.62
68.01,4.77
68.69,4.92
69.37,5.07
70.07,5.22
70.77,5.37
71.48,5.52
72.19,5.66
72.91,5.81
73.64,5.94
74.38,6.07
75.12,6.20
75.87,6.32
76.63,6.42
77.40,6.51
78.17,6.59
78.95,6.67
79.74,6.72
80.54,6.76
81.35,6.79
82.16,6.81
82.98,6.80
83.81,6.79
84.65,6.72
85.50,6.65
86.35,6.57
87.22,6.52
88.09,6.51
88.97,6.54
89.86,6.58
90.76,6.58
91.66,6.59
92.58,6.60
93.51,6.63
94.44,6.64
95.39,6.66
96.34,6.69
97.30,6.73
98.28,6.76
99.26,6.78
100.25,6.82
101.25,6.85
102.27,6.86
103.29,6.85
104.32,6.83
105.37,6.82
106.42,6.81
107.48,6.78
108.56,6.75
109.64,6.71
110.74,6.67
111.85,6.62
112.97,6.56
114.10,6.50
115.24,6.44
116.39,6.39
117.55,6.33
118.73,6.30
119.92,6.27
121.12,6.23
122.33,6.19
123.55,6.15
124.79,6.08
126.03,5.96
127.29,5.83
128.57,5.68
129.85,5.51
131.15,5.34
132.46,5.16
133.79,4.98
135.12,4.78
136.48,4.57
137.84,4.36
139.22,4.14
140.61,3.91
142.02,3.68
143.44,3.46
144.87,3.24
146.32,3.01
147.78,2.78
149.26,2.56
150.75,2.33
152.26,2.06
153.78,1.84
155.32,1.62
156.88,1.39
158.44,1.19
160.03,0.99
161.63,0.79
163.24,0.61
164.88,0.44
166.53,0.24
168.19,0.04
169.87,-0.16
171.57,-0.24
173.29,-0.33
175.02,-0.47
176.77,-0.67
178.54,-0.87
180.32,-1.05
182.13,-1.24
183.95,-1.42
185.79,-1.59
187.65,-1.74
189.52,-1.88
191.42,-2.01
193.33,-2.14
195.27,-2.28
197.22,-2.39
199.19,-2.48
201.18,-2.54
203.19,-2.58
205.23,-2.63
207.28,-2.67
209.35,-2.71
211.44,-2.73
213.56,-2.74
215.69,-2.74
217.85,-2.74
220.03,-2.73
222.23,-2.70
224.45,-2.67
226.70,-2.64
228.96,-2.60
231.25,-2.56
233.57,-2.52
235.90,-2.47
238.26,-2.40
240.64,-2.34
243.05,-2.29
245.48,-2.24
247.93,-2.20
250.41,-2.16
252.92,-2.09
255.45,-2.03
258.00,-1.98
260.58,-1.92
263.19,-1.85
265.82,-1.79
268.48,-1.72
271.16,-1.67
273.87,-1.61
276.61,-1.56
279.38,-1.49
282.17,-1.43
284.99,-1.37
287.84,-1.32
290.72,-1.27
293.63,-1.23
296.57,-1.18
299.53,-1.12
302.53,-1.04
305.55,-0.96
308.61,-0.88
311.69,-0.79
314.81,-0.71
317.96,-0.62
321.14,-0.54
324.35,-0.48
327.59,-0.41
330.87,-0.33
334.18,-0.26
337.52,-0.18
340.90,-0.11
344.30,-0.03
347.75,0.04
351.23,0.12
354.74,0.20
358.28,0.28
361.87,0.38
365.49,0.48
369.14,0.57
372.83,0.65
376.56,0.72
380.33,0.79
384.13,0.85
387.97,0.91
391.85,0.97
395.77,1.03
399.73,1.10
403.72,1.16
407.76,1.22
411.84,1.27
415.96,1.32
420.12,1.37
424.32,1.42
428.56,1.46
432.85,1.50
437.18,1.54
441.55,1.58
445.96,1.61
450.42,1.65
454.93,1.68
459.48,1.71
464.07,1.74
468.71,1.78
473.40,1.81
478.13,1.84
482.91,1.87
487.74,1.91
492.62,1.94
497.55,1.97
502.52,2.00
507.55,2.03
512.62,2.06
517.75,2.09
522.93,2.11
528.16,2.14
533.44,2.18
538.77,2.22
544.16,2.28
549.60,2.33
555.10,2.38
560.65,2.43
566.25,2.48
571.92,2.53
577.64,2.56
583.41,2.60
589.25,2.64
595.14,2.68
601.09,2.71
607.10,2.73
613.17,2.75
619.30,2.77
625.50,2.77
631.75,2.78
638.07,2.78
644.45,2.77
650.89,2.75
657.40,2.71
663.98,2.64
670.62,2.55
677.32,2.42
684.10,2.28
690.94,2.13
697.85,1.98
704.83,1.89
711.87,1.83
718.99,1.78
726.18,1.62
733.44,1.42
740.78,1.17
748.19,0.95
755.67,0.82
763.23,0.74
770.86,0.73
778.57,0.73
786.35,0.77
794.22,0.83
802.16,0.91
810.18,1.00
818.28,1.13
826.46,1.26
834.73,1.40
843.08,1.49
851.51,1.54
860.02,1.58
868.62,1.62
877.31,1.63
886.08,1.57
894.94,1.45
903.89,1.32
912.93,1.19
922.06,1.04
931.28,0.88
940.59,0.72
950.00,0.59
959.50,0.50
969.09,0.39
978.78,0.28
988.57,0.16
998.46,0.02
1008.44,-0.12
1018.53,-0.26
1028.71,-0.38
1039.00,-0.44
1049.39,-0.42
1059.88,-0.36
1070.48,-0.27
1081.19,-0.13
1092.00,0.04
1102.92,0.21
1113.95,0.44
1125.09,0.72
1136.34,1.03
1147.70,1.33
1159.18,1.62
1170.77,1.91
1182.48,2.14
1194.30,2.35
1206.25,2.56
1218.31,2.74
1230.49,2.89
1242.80,3.02
1255.22,3.13
1267.78,3.24
1280.45,3.33
1293.26,3.38
1306.19,3.42
1319.25,3.46
1332.45,3.49
1345.77,3.51
1359.23,3.53
1372.82,3.54
1386.55,3.54
1400.41,3.52
1414.42,3.52
1428.56,3.51
1442.85,3.50
1457.28,3.48
1471.85,3.48
1486.57,3.48
1501.43,3.47
1516.45,3.45
1531.61,3.44
1546.93,3.43
1562.40,3.44
1578.02,3.46
1593.80,3.49
1609.74,3.54
1625.84,3.61
1642.10,3.75
1658.52,3.91
1675.10,4.09
1691.85,4.19
1708.77,4.28
1725.86,4.33
1743.12,4.38
1760.55,4.43
1778.15,4.49
1795.94,4.55
1813.90,4.61
1832.03,4.68
1850.36,4.76
1868.86,4.86
1887.55,4.97
1906.42,5.09
1925.49,5.25
1944.74,5.43
1964.19,5.66
1983.83,5.91
2003.67,6.17
2023.71,6.43
2043.94,6.67
2064.38,6.90
2085.03,7.10
2105.88,7.26
2126.94,7.41
2148.20,7.53
2169.69,7.63
2191.38,7.72
2213.30,7.80
2235.43,7.89
2257.78,7.97
2280.36,8.05
2303.17,8.13
2326.20,8.22
2349.46,8.30
2372.95,8.39
2396.68,8.47
2420.65,8.54
2444.86,8.60
2469.31,8.66
2494.00,8.71
2518.94,8.78
2544.13,8.86
2569.57,9.01
2595.27,9.20
2621.22,9.43
2647.43,9.66
2673.90,9.82
2700.64,9.93
2727.65,9.97
2754.93,9.96
2782.48,9.92
2810.30,9.86
2838.40,9.78
2866.79,9.68
2895.46,9.57
2924.41,9.43
2953.65,9.29
2983.19,9.12
3013.02,8.94
3043.15,8.74
3073.58,8.53
3104.32,8.29
3135.36,8.04
3166.72,7.77
3198.38,7.49
3230.37,7.18
3262.67,6.85
3295.30,6.50
3328.25,6.14
3361.53,5.77
3395.15,5.43
3429.10,5.12
3463.39,4.81
3498.03,4.49
3533.01,4.17
3568.34,3.84
3604.02,3.52
3640.06,3.23
3676.46,2.99
3713.22,2.80
3750.36,2.63
3787.86,2.50
3825.74,2.38
3864.00,2.34
3902.64,2.39
3941.66,2.46
3981.08,2.59
4020.89,2.77
4061.10,2.98
4101.71,3.27
4142.73,3.61
4184.15,3.97
4226.00,4.31
4268.26,4.56
4310.94,4.69
4354.05,4.66
4397.59,4.57
4441.56,4.45
4485.98,4.30
4530.84,4.15
4576.15,4.01
4621.91,3.88
4668.13,3.77
4714.81,3.64
4761.96,3.52
4809.58,3.40
4857.67,3.29
4906.25,3.20
4955.31,3.13
5004.87,3.07
5054.91,3.06
5105.46,3.07
5156.52,3.12
5208.08,3.24
5260.16,3.41
5312.77,3.63
5365.89,3.92
5419.55,4.28
5473.75,4.71
5528.49,5.21
5583.77,5.83
5639.61,6.55
5696.00,7.32
5752.96,8.15
5810.49,8.95
5868.60,9.62
5927.28,10.15
5986.56,10.51
6046.42,10.63
6106.89,10.53
6167.96,10.17
6229.64,9.59
6291.93,8.85
6354.85,8.02
6418.40,7.16
6482.58,6.29
6547.41,5.41
6612.88,4.51
6679.01,3.52
6745.80,2.40
6813.26,1.18
6881.39,-0.17
6950.21,-1.26
7019.71,-1.93
7089.91,-1.79
7160.81,-1.06
7232.41,-0.33
7304.74,0.30
7377.79,0.66
7451.56,0.97
7526.08,1.26
7601.34,1.56
7677.35,1.93
7754.13,2.33
7831.67,2.81
7909.98,3.30
7989.08,3.77
8068.98,4.07
8149.67,4.17
8231.16,3.97
8313.47,3.24
8396.61,2.20
8480.57,0.54
8565.38,-1.65
8651.03,-4.25
8737.54,-7.30
8824.92,-10.43
8913.17,-11.79
9002.30,-12.39
9092.32,-10.98
9183.25,-9.41
9275.08,-7.82
9367.83,-6.42
9461.51,-5.61
9556.12,-5.31
9651.68,-5.44
9748.20,-5.81
9845.68,-6.14
9944.14,-6.22
10043.58,-5.93
10144.02,-5.33
10245.46,-4.67
10347.91,-4.05
10451.39,-3.43
10555.91,-2.13
10661.46,-0.87
10768.08,0.32
10875.76,1.19
10984.52,1.78
11094.36,2.19
11205.31,2.40
11317.36,2.24
11430.53,2.00
11544.84,1.75
11660.29,1.67
11776.89,1.64
11894.66,1.22
12013.60,0.70
12133.74,-0.11
12255.08,-1.24
12377.63,-2.53
12501.41,-3.78
12626.42,-4.83
12752.68,-5.80
12880.21,-6.78
13009.01,-7.77
13139.10,-8.77
13270.49,-10.47
13403.20,-12.33
13537.23,-13.07
13672.60,-13.33
13809.33,-13.15
13947.42,-12.56
14086.90,-12.69
14227.77,-13.25
14370.04,-15.11
14513.74,-17.99
14658.88,-17.89
14805.47,-17.15
14953.52,-15.36
15103.06,-13.11
15254.09,-10.66
15406.63,-8.89
15560.70,-7.40
15716.30,-6.35
15873.47,-5.18
16032.20,-4.01
16192.52,-3.02
16354.45,-2.97
16517.99,-3.68
16683.17,-6.35
16850.01,-9.18
17018.51,-12.12
17188.69,-15.11
17360.58,-17.88
17534.18,-20.15
17709.53,-20.78
17886.62,-19.98
18065.49,-18.82
18246.14,-17.79
18428.60,-18.12
18612.89,-18.92
18799.02,-20.01
18987.01,-21.17
19176.88,-22.28
19368.65,-23.56
19562.33,-25.09
19757.96,-26.91
19955.54,-28.73
