frequency,raw
20.00,-2.10
20.20,-2.00
20.40,-1.91
20.61,-1.82
20.81,-1.73
21.02,-1.64
21.23,-1.54
21.44,-1.45
21.66,-1.35
21.87,-1.25
22.09,-1.15
22.31,-1.06
22.54,-0.97
22.76,-0.89
22.99,-0.81
23.22,-0.75
23.45,-0.68
23.69,-0.61
23.92,-0.54
24.16,-0.46
24.40,-0.38
24.65,-0.29
24.89,-0.20
25.14,-0.11
25.39,-0.02
25.65,0.07
25.91,0.16
26.16,0.24
26.43,0.33
26.69,0.41
26.96,0.49
27.23,0.56
27.50,0.62
27.77,0.68
28.05,0.74
28.33,0.79
28.62,0.85
28.90,0.91
29.19,0.97
29.48,1.04
29.78,1.11
30.08,1.18
30.38,1.24
30.68,1.29
30.99,1.34
31.30,1.40
31.61,1.45
31.93,1.51
32.24,1.58
32.57,1.64
32.89,1.70
33.22,1.76
33.55,1.82
33.89,1.87
34.23,1.93
34.57,1.98
34.92,2.03
35.27,2.07
35.62,2.12
35.97,2.16
36.33,2.21
36.70,2.25
37.06,2.30
37.43,2.35
37.81,2.39
38.19,2.44
38.57,2.48
38.95,2.52
39.34,2.56
39.74,2.60
40.14,2.65
40.54,2.69
40.94,2.72
41.35,2.76
41.76,2.79
42.18,2.83
42.60,2.86
43.03,2.89
43.46,2.92
43.90,2.95
44.33,2.99
44.78,3.02
45.23,3.05
45.68,3.07
46.13,3.09
46.60,3.10
47.06,3.13
47.53,3.15
48.01,3.18
48.49,3.22
48.97,3.25
49.46,3.28
49.96,3.29
50.46,3.29
50.96,3.29
51.47,3.30
51.99,3.33
52.51,3.36
53.03,3.37
53.56,3.36
54.10,3.36
54.64,3.36
55.18,3.37
55.74,3.36
56.29,3.36
56.86,3.36
57.42,3.36
58.00,3.36
58.58,3.35
59.16,3.34
59.76,3.34
60.35,3.33
60.96,3.32
61.57,3.30
62.18,3.29
62.80,3.27
63.43,3.25
64.07,3.22
64.71,3.20
65.35,3.18
66.01,3.15
66.67,3.12
67.33,3.09
68.01,3.05
68.69,3.02
69.37,2.98
70.07,2.94
70.77,2.90
71.48,2.86
72.19,2.82
72.91,2.77
73.64,2.72
74.38,2.67
75.12,2.62
75.87,2.56
76.63,2.50
77.40,2.45
78.17,2.39
78.95,2.33
79.74,2.28
80.54,2.21
81.35,2.15
82.16,2.09
82.98,2.03
83.81,1.96
84.65,1.90
85.50,1.84
86.35,1.78
87.22,1.72
88.09,1.66
88.97,1.59
89.86,1.54
90.76,1.48
91.66,1.42
92.58,1.37
93.51,1.32
94.44,1.27
95.39,1.23
96.34,1.18
97.30,1.14
98.28,1.11
99.26,1.08
100.25,1.06
101.25,1.04
102.27,1.02
103.29,1.01
104.32,1.01
105.37,1.01
106.42,1.01
107.48,1.02
108.56,1.03
109.64,1.05
110.74,1.08
111.85,1.11
112.97,1.14
114.10,1.17
115.24,1.21
116.39,1.26
117.55,1.31
118.73,1.35
119.92,1.40
121.12,1.46
122.33,1.52
123.55,1.58
124.79,1.64
126.03,1.70
127.29,1.77
128.57,1.83
129.85,1.89
131.15,1.96
132.46,2.02
133.79,2.08
135.12,2.14
136.48,2.19
137.84,2.25
139.22,2.30
140.61,2.35
142.02,2.39
143.44,2.43
144.87,2.47
146.32,2.50
147.78,2.52
149.26,2.54
150.75,2.56
152.26,2.57
153.78,2.57
155.32,2.57
156.88,2.56
158.44,2.54
160.03,2.52
161.63,2.48
163.24,2.44
164.88,2.40
166.53,2.34
168.19,2.28
169.87,2.21
171.57,2.14
173.29,2.06
175.02,1.98
176.77,1.90
178.54,1.80
180.32,1.70
182.13,1.60
183.95,1.50
185.79,1.39
187.65,1.27
189.52,1.16
191.42,1.04
193.33,0.92
195.27,0.81
197.22,0.70
199.19,0.64
201.18,0.63
203.19,0.65
205.23,0.65
207.28,0.64
209.35,0.61
211.44,0.56
213.56,0.50
215.69,0.43
217.85,0.36
220.03,0.29
222.23,0.22
224.45,0.15
226.70,0.08
228.96,0.01
231.25,-0.05
233.57,-0.11
235.90,-0.17
238.26,-0.24
240.64,-0.30
243.05,-0.36
245.48,-0.42
247.93,-0.48
250.41,-0.54
252.92,-0.60
255.45,-0.66
258.00,-0.72
260.58,-0.78
263.19,-0.84
265.82,-0.90
268.48,-0.97
271.16,-1.03
273.87,-1.10
276.61,-1.17
279.38,-1.24
282.17,-1.32
284.99,-1.39
287.84,-1.47
290.72,-1.56
293.63,-1.64
296.57,-1.73
299.53,-1.82
302.53,-1.92
305.55,-2.01
308.61,-2.11
311.69,-2.22
314.81,-2.32
317.96,-2.43
321.14,-2.54
324.35,-2.66
327.59,-2.79
330.87,-2.91
334.18,-3.04
337.52,-3.15
340.90,-3.24
344.30,-3.27
347.75,-3.31
351.23,-3.37
354.74,-3.45
358.28,-3.50
361.87,-3.50
365.49,-3.47
369.14,-3.50
372.83,-3.57
376.56,-3.66
380.33,-3.76
384.13,-3.85
387.97,-3.95
391.85,-4.04
395.77,-4.12
399.73,-4.20
403.72,-4.27
407.76,-4.34
411.84,-4.40
415.96,-4.44
420.12,-4.49
424.32,-4.54
428.56,-4.59
432.85,-4.63
437.18,-4.66
441.55,-4.70
445.96,-4.72
450.42,-4.75
454.93,-4.76
459.48,-4.76
464.07,-4.76
468.71,-4.75
473.40,-4.75
478.13,-4.74
482.91,-4.73
487.74,-4.71
492.62,-4.69
497.55,-4.68
502.52,-4.65
507.55,-4.62
512.62,-4.59
517.75,-4.56
522.93,-4.53
528.16,-4.50
533.44,-4.47
538.77,-4.44
544.16,-4.41
549.60,-4.39
555.10,-4.36
560.65,-4.33
566.25,-4.29
571.92,-4.25
577.64,-4.21
583.41,-4.16
589.25,-4.10
595.14,-4.04
601.09,-3.98
607.10,-3.91
613.17,-3.83
619.30,-3.76
625.50,-3.69
631.75,-3.61
638.07,-3.54
644.45,-3.46
650.89,-3.39
657.40,-3.31
663.98,-3.22
670.62,-3.14
677.32,-3.05
684.10,-2.95
690.94,-2.85
697.85,-2.75
704.83,-2.65
711.87,-2.55
718.99,-2.45
726.18,-2.34
733.44,-2.23
740.78,-2.12
748.19,-2.00
755.67,-1.89
763.23,-1.78
770.86,-1.68
778.57,-1.58
786.35,-1.47
794.22,-1.36
802.16,-1.25
810.18,-1.14
818.28,-1.02
826.46,-0.91
834.73,-0.81
843.08,-0.71
851.51,-0.61
860.02,-0.52
868.62,-0.43
877.31,-0.34
886.08,-0.26
894.94,-0.18
903.89,-0.11
912.93,-0.04
922.06,0.02
931.28,0.07
940.59,0.11
950.00,0.14
959.50,0.14
969.09,0.13
978.78,0.11
988.57,0.07
998.46,0.01
1008.44,-0.07
1018.53,-0.15
1028.71,-0.25
1039.00,-0.35
1049.39,-0.44
1059.88,-0.53
1070.48,-0.63
1081.19,-0.73
1092.00,-0.82
1102.92,-0.92
1113.95,-1.03
1125.09,-1.15
1136.34,-1.27
1147.70,-1.40
1159.18,-1.51
1170.77,-1.62
1182.48,-1.72
1194.30,-1.81
1206.25,-1.90
1218.31,-1.98
1230.49,-2.05
1242.80,-2.10
1255.22,-2.13
1267.78,-2.14
1280.45,-2.12
1293.26,-2.09
1306.19,-2.06
1319.25,-2.03
1332.45,-2.01
1345.77,-2.00
1359.23,-2.01
1372.82,-1.87
1386.55,-1.80
1400.41,-1.80
1414.42,-1.85
1428.56,-1.89
1442.85,-1.71
1457.28,-1.61
1471.85,-1.63
1486.57,-1.67
1501.43,-1.71
1516.45,-1.78
1531.61,-1.86
1546.93,-1.96
1562.40,-2.05
1578.02,-2.15
1593.80,-2.28
1609.74,-2.35
1625.84,-2.40
1642.10,-2.52
1658.52,-2.65
1675.10,-2.78
1691.85,-2.92
1708.77,-3.07
1725.86,-3.22
1743.12,-3.38
1760.55,-3.56
1778.15,-3.75
1795.94,-3.96
1813.90,-4.16
1832.03,-4.36
1850.36,-4.55
1868.86,-4.73
1887.55,-4.91
1906.42,-5.08
1925.49,-5.25
1944.74,-5.42
1964.19,-5.60
1983.83,-5.78
2003.67,-5.96
2023.71,-6.12
2043.94,-6.29
2064.38,-6.46
2085.03,-6.63
2105.88,-6.79
2126.94,-6.96
2148.20,-7.10
2169.69,-7.24
2191.38,-7.36
2213.30,-7.44
2235.43,-7.51
2257.78,-7.54
2280.36,-7.53
2303.17,-7.50
2326.20,-7.43
2349.46,-7.34
2372.95,-7.20
2396.68,-7.02
2420.65,-6.76
2444.86,-6.44
2469.31,-6.07
2494.00,-5.66
2518.94,-5.20
2544.13,-4.72
2569.57,-4.22
2595.27,-3.70
2621.22,-3.18
2647.43,-2.67
2673.90,-2.19
2700.64,-1.72
2727.65,-1.28
2754.93,-0.86
2782.48,-0.50
2810.30,-0.17
2838.40,0.12
2866.79,0.35
2895.46,0.55
2924.41,0.69
2953.65,0.81
2983.19,0.86
3013.02,0.89
3043.15,0.88
3073.58,0.84
3104.32,0.76
3135.36,0.66
3166.72,0.56
3198.38,0.45
3230.37,0.37
3262.67,0.32
3295.30,0.30
3328.25,0.32
3361.53,0.34
3395.15,0.35
3429.10,0.31
3463.39,0.23
3498.03,0.08
3533.01,-0.15
3568.34,-0.44
3604.02,-0.77
3640.06,-1.16
3676.46,-1.59
3713.22,-2.06
3750.36,-2.54
3787.86,-3.06
3825.74,-3.57
3864.00,-4.09
3902.64,-4.59
3941.66,-5.09
3981.08,-5.57
4020.89,-6.03
4061.10,-6.47
4101.71,-6.86
4142.73,-7.23
4184.15,-7.57
4226.00,-7.88
4268.26,-8.17
4310.94,-8.42
4354.05,-8.63
4397.59,-8.82
4441.56,-8.99
4485.98,-9.14
4530.84,-9.20
4576.15,-9.22
4621.91,-9.23
4668.13,-9.22
4714.81,-9.18
4761.96,-9.11
4809.58,-8.98
4857.67,-8.81
4906.25,-8.57
4955.31,-8.28
5004.87,-7.93
5054.91,-7.52
5105.46,-7.12
5156.52,-6.73
5208.08,-6.40
5260.16,-6.15
5312.77,-5.94
5365.89,-5.80
5419.55,-5.71
5473.75,-5.66
5528.49,-5.64
5583.77,-5.62
5639.61,-5.55
5696.00,-5.45
5752.96,-5.21
5810.49,-4.94
5868.60,-4.62
5927.28,-4.29
5986.56,-3.93
6046.42,-3.54
6106.89,-3.13
6167.96,-2.70
6229.64,-2.28
6291.93,-1.88
6354.85,-1.56
6418.40,-1.30
6482.58,-1.15
6547.41,-1.16
6612.88,-1.25
6679.01,-1.49
6745.80,-1.81
6813.26,-2.18
6881.39,-2.60
6950.21,-3.01
7019.71,-3.41
7089.91,-3.76
7160.81,-4.02
7232.41,-4.22
7304.74,-4.37
7377.79,-4.44
7451.56,-4.49
7526.08,-4.55
7601.34,-4.67
7677.35,-5.03
7754.13,-5.50
7831.67,-6.58
7909.98,-7.99
7989.08,-9.95
8068.98,-12.49
8149.67,-13.53
8231.16,-11.81
8313.47,-10.93
8396.61,-10.33
8480.57,-9.85
8565.38,-9.29
8651.03,-8.96
8737.54,-9.08
8824.92,-9.35
8913.17,-9.56
9002.30,-9.72
9092.32,-9.70
9183.25,-9.62
9275.08,-9.46
9367.83,-9.22
9461.51,-9.09
9556.12,-9.08
9651.68,-9.14
9748.20,-9.21
9845.68,-9.76
9944.14,-10.78
10043.58,-12.18
10144.02,-13.75
10245.46,-15.07
10347.91,-16.13
10451.39,-16.82
10555.91,-16.96
10661.46,-16.91
10768.08,-16.68
10875.76,-16.27
10984.52,-15.88
11094.36,-15.59
11205.31,-15.53
11317.36,-15.97
11430.53,-16.68
11544.84,-18.05
11660.29,-19.96
11776.89,-22.10
11894.66,-23.61
12013.60,-24.90
12133.74,-25.05
12255.08,-24.78
12377.63,-24.88
12501.41,-26.77
12626.42,-28.57
12752.68,-24.95
12880.21,-21.57
13009.01,-19.07
13139.10,-16.57
13270.49,-15.48
13403.20,-14.75
13537.23,-14.71
13672.60,-15.57
13809.33,-17.67
13947.42,-25.83
14086.90,-25.62
14227.77,-20.32
14370.04,-18.02
14513.74,-18.76
14658.88,-18.94
14805.47,-18.64
14953.52,-17.54
15103.06,-16.07
15254.09,-14.45
15406.63,-13.07
15560.70,-11.85
15716.30,-10.88
15873.47,-10.05
16032.20,-9.24
16192.52,-8.41
16354.45,-7.79
16517.99,-7.49
16683.17,-8.80
16850.01,-10.96
17018.51,-13.91
17188.69,-18.54
17360.58,-21.82
17534.18,-24.40
17709.53,-27.25
17886.62,-26.43
18065.49,-23.86
18246.14,-20.14
18428.60,-16.30
18612.89,-13.57
18799.02,-11.96
18987.01,-11.43
19176.88,-11.09
19368.65,-10.75
19562.33,-10.71
19757.96,-11.32
19955.54,-11.92
