frequency,raw
20.00,-0.57
20.20,-0.59
20.40,-0.60
20.61,-0.61
20.81,-0.65
21.02,-0.68
21.23,-0.72
21.44,-0.75
21.66,-0.77
21.87,-0.78
22.09,-0.78
22.31,-0.76
22.54,-0.75
22.76,-0.74
22.99,-0.73
23.22,-0.75
23.45,-0.78
23.69,-0.82
23.92,-0.87
24.16,-0.91
24.40,-0.94
24.65,-0.96
24.89,-0.97
25.14,-0.96
25.39,-0.95
25.65,-0.94
25.91,-0.94
26.16,-0.94
26.43,-0.95
26.69,-0.97
26.96,-1.00
27.23,-1.03
27.50,-1.06
27.77,-1.10
28.05,-1.15
28.33,-1.21
28.62,-1.26
28.90,-1.31
29.19,-1.34
29.48,-1.37
29.78,-1.40
30.08,-1.42
30.38,-1.45
30.68,-1.49
30.99,-1.52
31.30,-1.54
31.61,-1.55
31.93,-1.55
32.24,-1.56
32.57,-1.57
32.89,-1.61
33.22,-1.65
33.55,-1.71
33.89,-1.78
34.23,-1.84
34.57,-1.88
34.92,-1.91
35.27,-1.92
35.62,-1.93
35.97,-1.93
36.33,-1.92
36.70,-1.91
37.06,-1.88
37.43,-1.82
37.81,-1.76
38.19,-1.69
38.57,-1.65
38.95,-1.62
39.34,-1.60
39.74,-1.56
40.14,-1.50
40.54,-1.43
40.94,-1.40
41.35,-1.37
41.76,-1.37
42.18,-1.38
42.60,-1.38
43.03,-1.39
43.46,-1.39
43.90,-1.36
44.33,-1.31
44.78,-1.23
45.23,-1.20
45.68,-1.26
46.13,-1.39
46.60,-1.53
47.06,-1.62
47.53,-1.67
48.01,-1.67
48.49,-1.70
48.97,-1.75
49.46,-1.81
49.96,-1.86
50.46,-1.89
50.96,-1.92
51.47,-1.95
51.99,-1.95
52.51,-1.94
53.03,-1.93
53.56,-1.90
54.10,-1.86
54.64,-1.80
55.18,-1.75
55.74,-1.72
56.29,-1.67
56.86,-1.61
57.42,-1.53
58.00,-1.45
58.58,-1.34
59.16,-1.26
59.76,-1.21
60.35,-1.23
60.96,-1.26
61.57,-1.24
62.18,-1.14
62.80,-1.05
63.43,-1.00
64.07,-0.96
64.71,-0.90
65.35,-0.84
66.01,-0.78
66.67,-0.72
67.33,-0.67
68.01,-0.62
68.69,-0.57
69.37,-0.52
70.07,-0.48
70.77,-0.43
71.48,-0.40
72.19,-0.38
72.91,-0.35
73.64,-0.32
74.38,-0.30
75.12,-0.28
75.87,-0.27
76.63,-0.25
77.40,-0.23
78.17,-0.21
78.95,-0.19
79.74,-0.16
80.54,-0.15
81.35,-0.14
82.16,-0.11
82.98,-0.08
83.81,-0.05
84.65,-0.02
85.50,-0.00
86.35,0.02
87.22,0.03
88.09,0.04
88.97,0.05
89.86,0.07
90.76,0.08
91.66,0.10
92.58,0.11
93.51,0.10
94.44,0.11
95.39,0.11
96.34,0.11
97.30,0.13
98.28,0.14
99.26,0.16
100.25,0.17
101.25,0.14
102.27,0.12
103.29,0.12
104.32,0.11
105.37,0.11
106.42,0.11
107.48,0.10
108.56,0.10
109.64,0.09
110.74,0.08
111.85,0.07
112.97,0.06
114.10,0.04
115.24,0.03
116.39,0.02
117.55,0.00
118.73,-0.02
119.92,-0.03
121.12,-0.06
122.33,-0.08
123.55,-0.11
124.79,-0.14
126.03,-0.18
127.29,-0.21
128.57,-0.24
129.85,-0.28
131.15,-0.31
132.46,-0.34
133.79,-0.36
135.12,-0.39
136.48,-0.42
137.84,-0.48
139.22,-0.50
140.61,-0.52
142.02,-0.55
143.44,-0.59
144.87,-0.66
146.32,-0.72
147.78,-0.77
149.26,-0.81
150.75,-0.84
152.26,-0.87
153.78,-0.92
155.32,-0.98
156.88,-1.01
158.44,-1.06
160.03,-1.12
161.63,-1.16
163.24,-1.20
164.88,-1.23
166.53,-1.29
168.19,-1.34
169.87,-1.38
171.57,-1.43
173.29,-1.47
175.02,-1.52
176.77,-1.56
178.54,-1.66
180.32,-1.77
182.13,-1.72
183.95,-1.73
185.79,-1.76
187.65,-1.79
189.52,-1.83
191.42,-1.87
193.33,-1.90
195.27,-1.92
197.22,-1.96
199.19,-2.00
201.18,-2.04
203.19,-2.08
205.23,-2.12
207.28,-2.16
209.35,-2.20
211.44,-2.24
213.56,-2.28
215.69,-2.33
217.85,-2.38
220.03,-2.43
222.23,-2.48
224.45,-2.52
226.70,-2.56
228.96,-2.61
231.25,-2.66
233.57,-2.71
235.90,-2.77
238.26,-2.83
240.64,-2.90
243.05,-2.96
245.48,-3.02
247.93,-3.09
250.41,-3.17
252.92,-3.23
255.45,-3.31
258.00,-3.39
260.58,-3.46
263.19,-3.54
265.82,-3.61
268.48,-3.69
271.16,-3.76
273.87,-3.84
276.61,-3.91
279.38,-3.98
282.17,-4.04
284.99,-4.10
287.84,-4.17
290.72,-4.24
293.63,-4.31
296.57,-4.38
299.53,-4.45
302.53,-4.53
305.55,-4.61
308.61,-4.69
311.69,-4.77
314.81,-4.87
317.96,-4.95
321.14,-5.03
324.35,-5.11
327.59,-5.21
330.87,-5.31
334.18,-5.41
337.52,-5.51
340.90,-5.62
344.30,-5.74
347.75,-5.85
351.23,-5.94
354.74,-6.02
358.28,-6.03
361.87,-5.98
365.49,-5.90
369.14,-5.89
372.83,-5.87
376.56,-5.87
380.33,-5.90
384.13,-5.92
387.97,-5.93
391.85,-5.93
395.77,-5.94
399.73,-5.93
403.72,-5.92
407.76,-5.91
411.84,-5.90
415.96,-5.88
420.12,-5.86
424.32,-5.82
428.56,-5.81
432.85,-5.79
437.18,-5.77
441.55,-5.73
445.96,-5.69
450.42,-5.65
454.93,-5.63
459.48,-5.57
464.07,-5.51
468.71,-5.46
473.40,-5.40
478.13,-5.34
482.91,-5.27
487.74,-5.19
492.62,-5.11
497.55,-5.02
502.52,-4.90
507.55,-4.77
512.62,-4.66
517.75,-4.53
522.93,-4.40
528.16,-4.26
533.44,-4.12
538.77,-3.97
544.16,-3.83
549.60,-3.70
555.10,-3.56
560.65,-3.42
566.25,-3.28
571.92,-3.15
577.64,-3.01
583.41,-2.87
589.25,-2.74
595.14,-2.62
601.09,-2.50
607.10,-2.38
613.17,-2.26
619.30,-2.13
625.50,-2.00
631.75,-1.86
638.07,-1.73
644.45,-1.59
650.89,-1.46
657.40,-1.32
663.98,-1.18
670.62,-1.03
677.32,-0.89
684.10,-0.75
690.94,-0.61
697.85,-0.48
704.83,-0.36
711.87,-0.23
718.99,-0.12
726.18,0.02
733.44,0.15
740.78,0.27
748.19,0.40
755.67,0.50
763.23,0.60
770.86,0.69
778.57,0.76
786.35,0.83
794.22,0.87
802.16,0.90
810.18,0.92
818.28,0.93
826.46,0.93
834.73,0.90
843.08,0.82
851.51,0.68
860.02,0.47
868.62,0.24
877.31,0.02
886.08,-0.15
894.94,-0.24
903.89,-0.31
912.93,-0.35
922.06,-0.36
931.28,-0.36
940.59,-0.35
950.00,-0.32
959.50,-0.28
969.09,-0.23
978.78,-0.17
988.57,-0.09
998.46,-0.01
1008.44,0.07
1018.53,0.14
1028.71,0.20
1039.00,0.27
1049.39,0.32
1059.88,0.37
1070.48,0.41
1081.19,0.46
1092.00,0.50
1102.92,0.55
1113.95,0.60
1125.09,0.65
1136.34,0.70
1147.70,0.76
1159.18,0.81
1170.77,0.86
1182.48,0.91
1194.30,0.95
1206.25,0.99
1218.31,1.03
1230.49,1.07
1242.80,1.12
1255.22,1.17
1267.78,1.22
1280.45,1.26
1293.26,1.31
1306.19,1.35
1319.25,1.40
1332.45,1.48
1345.77,1.54
1359.23,1.59
1372.82,1.54
1386.55,1.47
1400.41,1.38
1414.42,1.47
1428.56,1.56
1442.85,1.72
1457.28,1.88
1471.85,2.01
1486.57,2.07
1501.43,2.11
1516.45,2.09
1531.61,2.05
1546.93,1.98
1562.40,1.90
1578.02,1.84
1593.80,1.81
1609.74,1.81
1625.84,1.84
1642.10,1.91
1658.52,1.99
1675.10,2.09
1691.85,2.19
1708.77,2.29
1725.86,2.38
1743.12,2.47
1760.55,2.57
1778.15,2.68
1795.94,2.78
1813.90,2.88
1832.03,2.96
1850.36,3.03
1868.86,3.09
1887.55,3.20
1906.42,3.36
1925.49,3.54
1944.74,3.65
1964.19,3.74
1983.83,3.84
2003.67,3.97
2023.71,4.13
2043.94,4.34
2064.38,4.55
2085.03,4.64
2105.88,4.69
2126.94,4.71
2148.20,4.70
2169.69,4.66
2191.38,4.60
2213.30,4.49
2235.43,4.35
2257.78,4.21
2280.36,4.10
2303.17,4.06
2326.20,4.14
2349.46,4.29
2372.95,4.46
2396.68,4.63
2420.65,4.80
2444.86,4.91
2469.31,4.99
2494.00,5.06
2518.94,5.14
2544.13,5.22
2569.57,5.22
2595.27,5.25
2621.22,5.32
2647.43,5.49
2673.90,5.57
2700.64,5.60
2727.65,5.52
2754.93,5.37
2782.48,5.25
2810.30,5.12
2838.40,4.96
2866.79,4.82
2895.46,4.68
2924.41,4.45
2953.65,4.20
2983.19,3.87
3013.02,3.40
3043.15,2.77
3073.58,2.21
3104.32,1.92
3135.36,1.71
3166.72,1.53
3198.38,1.34
3230.37,1.17
3262.67,0.98
3295.30,0.76
3328.25,0.95
3361.53,1.03
3395.15,0.74
3429.10,0.50
3463.39,0.33
3498.03,0.29
3533.01,0.46
3568.34,0.67
3604.02,0.91
3640.06,1.01
3676.46,0.94
3713.22,0.61
3750.36,-0.03
3787.86,0.39
3825.74,0.80
3864.00,1.19
3902.64,1.33
3941.66,1.43
3981.08,1.40
4020.89,1.37
4061.10,1.39
4101.71,1.30
4142.73,1.13
4184.15,0.91
4226.00,0.83
4268.26,0.69
4310.94,0.49
4354.05,0.31
4397.59,-0.03
4441.56,-0.48
4485.98,-0.88
4530.84,-0.84
4576.15,-0.77
4621.91,-0.82
4668.13,-0.76
4714.81,-0.76
4761.96,-0.84
4809.58,-1.11
4857.67,-0.86
4906.25,-0.55
4955.31,-0.26
5004.87,0.05
5054.91,0.31
5105.46,0.52
5156.52,0.73
5208.08,1.28
5260.16,1.87
5312.77,2.44
5365.89,2.90
5419.55,3.11
5473.75,3.15
5528.49,3.12
5583.77,3.35
5639.61,3.14
5696.00,2.74
5752.96,2.22
5810.49,1.74
5868.60,1.52
5927.28,1.18
5986.56,0.73
6046.42,0.28
6106.89,0.04
6167.96,-0.25
6229.64,-1.10
6291.93,-0.80
6354.85,0.33
6418.40,1.17
6482.58,0.99
6547.41,0.92
6612.88,0.90
6679.01,0.95
6745.80,1.04
6813.26,1.21
6881.39,1.66
6950.21,2.01
7019.71,2.38
7089.91,2.87
7160.81,3.39
7232.41,3.81
7304.74,4.07
7377.79,3.89
7451.56,3.87
7526.08,3.83
7601.34,3.62
7677.35,3.52
7754.13,3.43
7831.67,2.85
7909.98,1.99
7989.08,0.64
8068.98,-0.84
8149.67,-2.83
8231.16,-5.63
8313.47,-7.98
8396.61,-9.48
8480.57,-8.07
8565.38,-5.79
8651.03,-3.46
8737.54,-1.53
8824.92,-0.88
8913.17,-1.06
9002.30,-1.51
9092.32,-2.58
9183.25,-3.95
9275.08,-5.39
9367.83,-6.67
9461.51,-7.59
9556.12,-8.19
9651.68,-8.72
9748.20,-9.50
9845.68,-8.14
9944.14,-6.83
10043.58,-5.62
10144.02,-4.49
10245.46,-5.54
10347.91,-5.31
10451.39,-3.51
10555.91,-2.17
10661.46,-2.33
10768.08,-3.49
10875.76,-4.36
10984.52,-4.50
11094.36,-4.40
11205.31,-4.15
11317.36,-2.56
11430.53,-2.18
11544.84,-3.07
11660.29,-3.61
11776.89,-5.42
11894.66,-4.49
12013.60,-2.56
12133.74,-1.20
12255.08,-2.01
12377.63,-5.02
12501.41,-5.46
12626.42,-6.25
12752.68,-4.51
12880.21,-4.00
13009.01,-4.56
13139.10,-5.12
13270.49,-3.42
13403.20,-3.59
13537.23,-6.07
13672.60,-8.72
13809.33,-10.97
13947.42,-5.73
14086.90,-2.90
14227.77,-1.54
14370.04,-1.53
14513.74,-3.22
14658.88,-7.63
14805.47,-11.60
14953.52,-14.84
15103.06,-16.91
15254.09,-18.29
15406.63,-13.63
15560.70,-9.56
15716.30,-6.41
15873.47,-4.28
16032.20,-2.33
16192.52,0.05
16354.45,1.73
16517.99,2.81
16683.17,2.13
16850.01,2.10
17018.51,2.39
17188.69,1.57
17360.58,1.27
17534.18,1.11
17709.53,0.26
17886.62,0.02
18065.49,-0.28
18246.14,-1.02
18428.60,0.37
18612.89,0.73
18799.02,-0.45
18987.01,-4.10
19176.88,-8.81
19368.65,-11.59
19562.33,-12.61
19757.96,-12.53
19955.54,-12.45
