frequency,raw
20.00,7.53
20.20,7.52
20.40,7.51
20.61,7.49
20.81,7.47
21.02,7.45
21.23,7.43
21.44,7.41
21.66,7.40
21.87,7.39
22.09,7.39
22.31,7.39
22.54,7.40
22.76,7.42
22.99,7.43
23.22,7.44
23.45,7.45
23.69,7.45
23.92,7.43
24.16,7.41
24.40,7.39
24.65,7.36
24.89,7.33
25.14,7.31
25.39,7.29
25.65,7.27
25.91,7.26
26.16,7.26
26.43,7.24
26.69,7.23
26.96,7.21
27.23,7.19
27.50,7.18
27.77,7.17
28.05,7.15
28.33,7.13
28.62,7.11
28.90,7.07
29.19,7.02
29.48,6.97
29.78,6.92
30.08,6.87
30.38,6.85
30.68,6.85
30.99,6.87
31.30,6.90
31.61,6.93
31.93,6.96
32.24,6.97
32.57,6.96
32.89,6.94
33.22,6.89
33.55,6.83
33.89,6.75
34.23,6.68
34.57,6.61
34.92,6.55
35.27,6.52
35.62,6.52
35.97,6.54
36.33,6.60
36.70,6.67
37.06,6.74
37.43,6.80
37.81,6.84
38.19,6.87
38.57,6.90
38.95,6.92
39.34,6.94
39.74,6.94
40.14,6.90
40.54,6.83
40.94,6.73
41.35,6.64
41.76,6.56
42.18,6.51
42.60,6.46
43.03,6.41
43.46,6.37
43.90,6.34
44.33,6.34
44.78,6.34
45.23,6.33
45.68,6.29
46.13,6.23
46.60,6.20
47.06,6.18
47.53,6.18
48.01,6.17
48.49,6.16
48.97,6.15
49.46,6.14
49.96,6.13
50.46,6.12
50.96,6.11
51.47,6.11
51.99,6.11
52.51,6.11
53.03,6.11
53.56,6.12
54.10,6.12
54.64,6.12
55.18,6.12
55.74,6.13
56.29,6.15
56.86,6.16
57.42,6.17
58.00,6.18
58.58,6.17
59.16,6.16
59.76,6.13
60.35,6.14
60.96,6.17
61.57,6.20
62.18,6.22
62.80,6.26
63.43,6.30
64.07,6.34
64.71,6.37
65.35,6.41
66.01,6.46
66.67,6.50
67.33,6.55
68.01,6.59
68.69,6.63
69.37,6.68
70.07,6.73
70.77,6.79
71.48,6.84
72.19,6.88
72.91,6.91
73.64,6.95
74.38,6.99
75.12,7.03
75.87,7.05
76.63,7.07
77.40,7.09
78.17,7.11
78.95,7.12
79.74,7.13
80.54,7.14
81.35,7.14
82.16,7.14
82.98,7.14
83.81,7.14
84.65,7.13
85.50,7.12
86.35,7.10
87.22,7.09
88.09,7.07
88.97,7.05
89.86,7.02
90.76,6.99
91.66,6.96
92.58,6.93
93.51,6.90
94.44,6.86
95.39,6.82
96.34,6.77
97.30,6.72
98.28,6.65
99.26,6.58
100.25,6.50
101.25,6.40
102.27,6.31
103.29,6.23
104.32,6.17
105.37,6.08
106.42,5.99
107.48,5.91
108.56,5.85
109.64,5.77
110.74,5.68
111.85,5.59
112.97,5.48
114.10,5.38
115.24,5.27
116.39,5.14
117.55,5.03
118.73,4.92
119.92,4.81
121.12,4.66
122.33,4.49
123.55,4.36
124.79,4.22
126.03,4.07
127.29,3.92
128.57,3.76
129.85,3.60
131.15,3.44
132.46,3.28
133.79,3.11
135.12,2.94
136.48,2.77
137.84,2.61
139.22,2.45
140.61,2.29
142.02,2.12
143.44,1.96
144.87,1.80
146.32,1.65
147.78,1.50
149.26,1.37
150.75,1.24
152.26,1.14
153.78,1.05
155.32,0.97
156.88,0.93
158.44,0.92
160.03,0.92
161.63,0.95
163.24,0.99
164.88,1.04
166.53,1.09
168.19,1.14
169.87,1.20
171.57,1.25
173.29,1.30
175.02,1.36
176.77,1.42
178.54,1.45
180.32,1.48
182.13,1.59
183.95,1.66
185.79,1.72
187.65,1.79
189.52,1.86
191.42,1.93
193.33,2.01
195.27,2.10
197.22,2.19
199.19,2.28
201.18,2.36
203.19,2.44
205.23,2.52
207.28,2.59
209.35,2.65
211.44,2.72
213.56,2.79
215.69,2.85
217.85,2.92
220.03,2.99
222.23,3.06
224.45,3.13
226.70,3.20
228.96,3.26
231.25,3.32
233.57,3.37
235.90,3.42
238.26,3.48
240.64,3.53
243.05,3.55
245.48,3.58
247.93,3.62
250.41,3.66
252.92,3.69
255.45,3.73
258.00,3.77
260.58,3.81
263.19,3.85
265.82,3.89
268.48,3.93
271.16,3.96
273.87,3.99
276.61,4.02
279.38,4.04
282.17,4.05
284.99,4.06
287.84,4.07
290.72,4.07
293.63,4.08
296.57,4.08
299.53,4.09
302.53,4.10
305.55,4.11
308.61,4.13
311.69,4.15
314.81,4.16
317.96,4.16
321.14,4.16
324.35,4.15
327.59,4.13
330.87,4.10
334.18,4.06
337.52,4.00
340.90,3.93
344.30,3.84
347.75,3.76
351.23,3.71
354.74,3.69
358.28,3.72
361.87,3.74
365.49,3.73
369.14,3.70
372.83,3.64
376.56,3.58
380.33,3.51
384.13,3.45
387.97,3.38
391.85,3.31
395.77,3.24
399.73,3.17
403.72,3.09
407.76,3.02
411.84,2.94
415.96,2.87
420.12,2.79
424.32,2.72
428.56,2.64
432.85,2.57
437.18,2.49
441.55,2.43
445.96,2.37
450.42,2.31
454.93,2.26
459.48,2.22
464.07,2.17
468.71,2.12
473.40,2.07
478.13,2.02
482.91,1.97
487.74,1.91
492.62,1.86
497.55,1.81
502.52,1.77
507.55,1.73
512.62,1.70
517.75,1.67
522.93,1.64
528.16,1.61
533.44,1.57
538.77,1.54
544.16,1.49
549.60,1.46
555.10,1.42
560.65,1.38
566.25,1.36
571.92,1.34
577.64,1.33
583.41,1.31
589.25,1.31
595.14,1.32
601.09,1.34
607.10,1.36
613.17,1.39
619.30,1.43
625.50,1.47
631.75,1.50
638.07,1.52
644.45,1.55
650.89,1.58
657.40,1.59
663.98,1.58
670.62,1.56
677.32,1.54
684.10,1.52
690.94,1.50
697.85,1.46
704.83,1.42
711.87,1.38
718.99,1.34
726.18,1.29
733.44,1.23
740.78,1.18
748.19,1.14
755.67,1.10
763.23,1.07
770.86,1.04
778.57,1.00
786.35,0.96
794.22,0.92
802.16,0.88
810.18,0.84
818.28,0.79
826.46,0.73
834.73,0.67
843.08,0.62
851.51,0.57
860.02,0.53
868.62,0.49
877.31,0.45
886.08,0.41
894.94,0.36
903.89,0.32
912.93,0.26
922.06,0.20
931.28,0.14
940.59,0.08
950.00,0.02
959.50,-0.05
969.09,-0.07
978.78,-0.06
988.57,-0.03
998.46,0.00
1008.44,-0.02
1018.53,-0.07
1028.71,-0.16
1039.00,-0.28
1049.39,-0.40
1059.88,-0.49
1070.48,-0.52
1081.19,-0.54
1092.00,-0.55
1102.92,-0.57
1113.95,-0.59
1125.09,-0.63
1136.34,-0.66
1147.70,-0.71
1159.18,-0.77
1170.77,-0.82
1182.48,-0.88
1194.30,-0.93
1206.25,-0.99
1218.31,-1.04
1230.49,-1.08
1242.80,-1.12
1255.22,-1.16
1267.78,-1.19
1280.45,-1.23
1293.26,-1.26
1306.19,-1.29
1319.25,-1.31
1332.45,-1.34
1345.77,-1.37
1359.23,-1.38
1372.82,-1.37
1386.55,-1.35
1400.41,-1.34
1414.42,-1.31
1428.56,-1.27
1442.85,-1.22
1457.28,-1.17
1471.85,-1.11
1486.57,-1.03
1501.43,-0.95
1516.45,-0.86
1531.61,-0.76
1546.93,-0.66
1562.40,-0.55
1578.02,-0.45
1593.80,-0.36
1609.74,-0.26
1625.84,-0.15
1642.10,-0.03
1658.52,0.09
1675.10,0.21
1691.85,0.34
1708.77,0.47
1725.86,0.61
1743.12,0.74
1760.55,0.88
1778.15,1.03
1795.94,1.17
1813.90,1.30
1832.03,1.43
1850.36,1.56
1868.86,1.68
1887.55,1.81
1906.42,1.93
1925.49,2.05
1944.74,2.14
1964.19,2.22
1983.83,2.28
2003.67,2.33
2023.71,2.36
2043.94,2.37
2064.38,2.37
2085.03,2.32
2105.88,2.24
2126.94,2.12
2148.20,1.93
2169.69,1.67
2191.38,1.36
2213.30,0.93
2235.43,0.45
2257.78,-0.13
2280.36,-0.76
2303.17,-1.42
2326.20,-2.01
2349.46,-2.40
2372.95,-2.49
2396.68,-2.37
2420.65,-1.90
2444.86,-1.26
2469.31,-0.55
2494.00,0.17
2518.94,0.85
2544.13,1.51
2569.57,2.08
2595.27,2.59
2621.22,3.05
2647.43,3.45
2673.90,3.78
2700.64,4.08
2727.65,4.31
2754.93,4.49
2782.48,4.60
2810.30,4.67
2838.40,4.70
2866.79,4.69
2895.46,4.65
2924.41,4.55
2953.65,4.43
2983.19,4.24
3013.02,4.03
3043.15,3.79
3073.58,3.51
3104.32,3.22
3135.36,2.95
3166.72,2.69
3198.38,2.42
3230.37,2.12
3262.67,1.83
3295.30,1.57
3328.25,1.38
3361.53,1.27
3395.15,1.30
3429.10,1.60
3463.39,2.07
3498.03,2.72
3533.01,3.51
3568.34,4.31
3604.02,5.08
3640.06,5.71
3676.46,6.15
3713.22,6.40
3750.36,6.45
3787.86,6.13
3825.74,5.79
3864.00,5.23
3902.64,4.57
3941.66,3.88
3981.08,3.16
4020.89,2.42
4061.10,1.69
4101.71,1.00
4142.73,0.35
4184.15,-0.25
4226.00,-0.69
4268.26,-1.03
4310.94,-1.24
4354.05,-1.31
4397.59,-1.33
4441.56,-1.33
4485.98,-1.31
4530.84,-1.26
4576.15,-1.12
4621.91,-0.91
4668.13,-0.50
4714.81,-0.00
4761.96,0.51
4809.58,0.98
4857.67,1.31
4906.25,1.44
4955.31,1.48
5004.87,1.39
5054.91,1.24
5105.46,1.08
5156.52,0.91
5208.08,0.78
5260.16,0.72
5312.77,0.73
5365.89,0.90
5419.55,1.32
5473.75,1.97
5528.49,2.85
5583.77,3.87
5639.61,4.78
5696.00,5.66
5752.96,6.29
5810.49,6.84
5868.60,7.16
5927.28,7.37
5986.56,7.46
6046.42,7.56
6106.89,7.62
6167.96,7.55
6229.64,7.20
6291.93,6.46
6354.85,5.26
6418.40,3.83
6482.58,1.98
6547.41,-0.29
6612.88,-2.77
6679.01,-5.47
6745.80,-7.75
6813.26,-9.52
6881.39,-9.89
6950.21,-8.91
7019.71,-7.32
7089.91,-5.45
7160.81,-3.70
7232.41,-2.13
7304.74,-0.77
7377.79,0.19
7451.56,0.91
7526.08,1.45
7601.34,1.86
7677.35,2.22
7754.13,2.57
7831.67,2.95
7909.98,3.38
7989.08,3.88
8068.98,4.44
8149.67,4.96
8231.16,5.38
8313.47,5.23
8396.61,4.67
8480.57,3.13
8565.38,1.44
8651.03,0.10
8737.54,-0.57
8824.92,-0.88
8913.17,-1.53
9002.30,-2.38
9092.32,-4.05
9183.25,-6.18
9275.08,-8.66
9367.83,-11.54
9461.51,-14.82
9556.12,-17.97
9651.68,-19.21
9748.20,-16.84
9845.68,-15.85
9944.14,-14.87
10043.58,-13.58
10144.02,-11.89
10245.46,-11.05
10347.91,-10.65
10451.39,-10.68
10555.91,-10.63
10661.46,-10.41
10768.08,-10.13
10875.76,-10.10
10984.52,-10.45
11094.36,-10.99
11205.31,-11.68
11317.36,-12.26
11430.53,-12.87
11544.84,-13.43
11660.29,-13.85
11776.89,-13.53
11894.66,-12.20
12013.60,-10.80
12133.74,-10.22
12255.08,-10.68
12377.63,-11.75
12501.41,-13.34
12626.42,-15.33
12752.68,-17.23
12880.21,-18.23
13009.01,-18.71
13139.10,-19.18
13270.49,-19.45
13403.20,-19.94
13537.23,-20.66
13672.60,-20.70
13809.33,-20.32
13947.42,-22.01
14086.90,-20.84
14227.77,-17.92
14370.04,-14.52
14513.74,-10.88
14658.88,-9.61
14805.47,-8.80
14953.52,-8.77
15103.06,-8.73
15254.09,-8.69
15406.63,-8.39
15560.70,-8.13
15716.30,-7.91
15873.47,-7.74
16032.20,-7.52
16192.52,-7.04
16354.45,-7.01
16517.99,-7.33
16683.17,-8.49
16850.01,-9.35
17018.51,-9.99
17188.69,-10.54
17360.58,-11.13
17534.18,-11.65
17709.53,-11.73
17886.62,-11.46
18065.49,-10.84
18246.14,-9.79
18428.60,-8.92
18612.89,-9.10
18799.02,-10.16
18987.01,-11.76
19176.88,-12.97
19368.65,-13.79
19562.33,-14.34
19757.96,-14.78
19955.54,-15.22
