frequency,raw
20.00,4.77
20.20,4.78
20.40,4.79
20.61,4.80
20.81,4.81
21.02,4.81
21.23,4.82
21.44,4.82
21.66,4.82
21.87,4.82
22.09,4.83
22.31,4.84
22.54,4.85
22.76,4.87
22.99,4.89
23.22,4.91
23.45,4.93
23.69,4.94
23.92,4.94
24.16,4.93
24.40,4.92
24.65,4.89
24.89,4.86
25.14,4.83
25.39,4.80
25.65,4.79
25.91,4.78
26.16,4.78
26.43,4.79
26.69,4.80
26.96,4.81
27.23,4.81
27.50,4.80
27.77,4.79
28.05,4.77
28.33,4.74
28.62,4.72
28.90,4.69
29.19,4.66
29.48,4.62
29.78,4.57
30.08,4.52
30.38,4.48
30.68,4.44
30.99,4.42
31.30,4.43
31.61,4.45
31.93,4.48
32.24,4.51
32.57,4.52
32.89,4.52
33.22,4.49
33.55,4.45
33.89,4.38
34.23,4.31
34.57,4.22
34.92,4.14
35.27,4.06
35.62,4.01
35.97,3.98
36.33,3.98
36.70,4.00
37.06,4.03
37.43,4.07
37.81,4.11
38.19,4.16
38.57,4.19
38.95,4.20
39.34,4.21
39.74,4.21
40.14,4.20
40.54,4.18
40.94,4.14
41.35,4.10
41.76,4.03
42.18,3.98
42.60,3.92
43.03,3.88
43.46,3.82
43.90,3.75
44.33,3.67
44.78,3.63
45.23,3.60
45.68,3.57
46.13,3.52
46.60,3.47
47.06,3.43
47.53,3.42
48.01,3.43
48.49,3.42
48.97,3.40
49.46,3.39
49.96,3.41
50.46,3.42
50.96,3.43
51.47,3.43
51.99,3.42
52.51,3.40
53.03,3.38
53.56,3.33
54.10,3.28
54.64,3.23
55.18,3.17
55.74,3.13
56.29,3.09
56.86,3.04
57.42,2.98
58.00,2.91
58.58,2.87
59.16,2.82
59.76,2.75
60.35,2.71
60.96,2.71
61.57,2.73
62.18,2.74
62.80,2.71
63.43,2.71
64.07,2.72
64.71,2.74
65.35,2.77
66.01,2.81
66.67,2.83
67.33,2.85
68.01,2.88
68.69,2.92
69.37,2.95
70.07,2.98
70.77,3.02
71.48,3.06
72.19,3.10
72.91,3.14
73.64,3.18
74.38,3.21
75.12,3.25
75.87,3.27
76.63,3.28
77.40,3.29
78.17,3.31
78.95,3.32
79.74,3.32
80.54,3.31
81.35,3.29
82.16,3.28
82.98,3.26
83.81,3.24
84.65,3.21
85.50,3.17
86.35,3.14
87.22,3.10
88.09,3.06
88.97,3.04
89.86,3.01
90.76,2.97
91.66,2.93
92.58,2.89
93.51,2.85
94.44,2.81
95.39,2.76
96.34,2.71
97.30,2.66
98.28,2.60
99.26,2.54
100.25,2.48
101.25,2.42
102.27,2.36
103.29,2.29
104.32,2.21
105.37,2.12
106.42,2.03
107.48,1.94
108.56,1.86
109.64,1.78
110.74,1.71
111.85,1.64
112.97,1.57
114.10,1.49
115.24,1.41
116.39,1.33
117.55,1.25
118.73,1.17
119.92,1.09
121.12,0.98
122.33,0.86
123.55,0.77
124.79,0.66
126.03,0.56
127.29,0.45
128.57,0.34
129.85,0.22
131.15,0.11
132.46,-0.01
133.79,-0.13
135.12,-0.24
136.48,-0.35
137.84,-0.48
139.22,-0.60
140.61,-0.72
142.02,-0.84
143.44,-0.97
144.87,-1.08
146.32,-1.21
147.78,-1.34
149.26,-1.46
150.75,-1.58
152.26,-1.70
153.78,-1.79
155.32,-1.87
156.88,-1.92
158.44,-1.94
160.03,-1.94
161.63,-1.89
163.24,-1.83
164.88,-1.74
166.53,-1.66
168.19,-1.57
169.87,-1.47
171.57,-1.38
173.29,-1.29
175.02,-1.19
176.77,-1.10
178.54,-0.98
180.32,-0.86
182.13,-0.80
183.95,-0.72
185.79,-0.63
187.65,-0.53
189.52,-0.44
191.42,-0.34
193.33,-0.24
195.27,-0.14
197.22,-0.04
199.19,0.07
201.18,0.17
203.19,0.28
205.23,0.38
207.28,0.47
209.35,0.56
211.44,0.65
213.56,0.73
215.69,0.82
217.85,0.90
220.03,0.98
222.23,1.07
224.45,1.15
226.70,1.22
228.96,1.29
231.25,1.36
233.57,1.42
235.90,1.48
238.26,1.52
240.64,1.56
243.05,1.63
245.48,1.67
247.93,1.71
250.41,1.74
252.92,1.77
255.45,1.80
258.00,1.82
260.58,1.84
263.19,1.85
265.82,1.87
268.48,1.88
271.16,1.89
273.87,1.88
276.61,1.88
279.38,1.88
282.17,1.88
284.99,1.88
287.84,1.87
290.72,1.86
293.63,1.85
296.57,1.83
299.53,1.82
302.53,1.78
305.55,1.75
308.61,1.71
311.69,1.67
314.81,1.63
317.96,1.57
321.14,1.52
324.35,1.46
327.59,1.41
330.87,1.37
334.18,1.32
337.52,1.26
340.90,1.21
344.30,1.16
347.75,1.14
351.23,1.12
354.74,1.12
358.28,1.15
361.87,1.17
365.49,1.19
369.14,1.18
372.83,1.15
376.56,1.13
380.33,1.10
384.13,1.07
387.97,1.04
391.85,1.01
395.77,0.99
399.73,0.95
403.72,0.91
407.76,0.87
411.84,0.83
415.96,0.79
420.12,0.75
424.32,0.71
428.56,0.68
432.85,0.64
437.18,0.61
441.55,0.58
445.96,0.54
450.42,0.50
454.93,0.46
459.48,0.41
464.07,0.34
468.71,0.24
473.40,0.15
478.13,0.05
482.91,-0.05
487.74,-0.15
492.62,-0.24
497.55,-0.32
502.52,-0.39
507.55,-0.45
512.62,-0.51
517.75,-0.55
522.93,-0.60
528.16,-0.64
533.44,-0.67
538.77,-0.70
544.16,-0.74
549.60,-0.76
555.10,-0.77
560.65,-0.77
566.25,-0.75
571.92,-0.71
577.64,-0.65
583.41,-0.59
589.25,-0.52
595.14,-0.44
601.09,-0.37
607.10,-0.30
613.17,-0.24
619.30,-0.21
625.50,-0.20
631.75,-0.22
638.07,-0.25
644.45,-0.28
650.89,-0.30
657.40,-0.33
663.98,-0.35
670.62,-0.37
677.32,-0.38
684.10,-0.38
690.94,-0.37
697.85,-0.36
704.83,-0.35
711.87,-0.33
718.99,-0.31
726.18,-0.30
733.44,-0.28
740.78,-0.25
748.19,-0.19
755.67,-0.15
763.23,-0.11
770.86,-0.09
778.57,-0.06
786.35,-0.03
794.22,0.02
802.16,0.08
810.18,0.13
818.28,0.18
826.46,0.22
834.73,0.25
843.08,0.26
851.51,0.26
860.02,0.27
868.62,0.26
877.31,0.26
886.08,0.25
894.94,0.25
903.89,0.24
912.93,0.24
922.06,0.22
931.28,0.18
940.59,0.14
950.00,0.08
959.50,0.03
969.09,0.01
978.78,0.01
988.57,0.02
998.46,0.01
1008.44,-0.04
1018.53,-0.11
1028.71,-0.21
1039.00,-0.33
1049.39,-0.43
1059.88,-0.50
1070.48,-0.52
1081.19,-0.53
1092.00,-0.54
1102.92,-0.57
1113.95,-0.59
1125.09,-0.61
1136.34,-0.63
1147.70,-0.63
1159.18,-0.65
1170.77,-0.66
1182.48,-0.68
1194.30,-0.69
1206.25,-0.70
1218.31,-0.68
1230.49,-0.67
1242.80,-0.67
1255.22,-0.67
1267.78,-0.67
1280.45,-0.65
1293.26,-0.64
1306.19,-0.63
1319.25,-0.62
1332.45,-0.61
1345.77,-0.60
1359.23,-0.59
1372.82,-0.58
1386.55,-0.56
1400.41,-0.55
1414.42,-0.52
1428.56,-0.50
1442.85,-0.46
1457.28,-0.42
1471.85,-0.37
1486.57,-0.30
1501.43,-0.23
1516.45,-0.16
1531.61,-0.09
1546.93,-0.03
1562.40,0.04
1578.02,0.09
1593.80,0.14
1609.74,0.19
1625.84,0.24
1642.10,0.31
1658.52,0.37
1675.10,0.44
1691.85,0.50
1708.77,0.56
1725.86,0.62
1743.12,0.67
1760.55,0.73
1778.15,0.80
1795.94,0.86
1813.90,0.92
1832.03,0.98
1850.36,1.04
1868.86,1.12
1887.55,1.21
1906.42,1.32
1925.49,1.42
1944.74,1.48
1964.19,1.53
1983.83,1.58
2003.67,1.63
2023.71,1.65
2043.94,1.65
2064.38,1.62
2085.03,1.55
2105.88,1.43
2126.94,1.27
2148.20,1.03
2169.69,0.72
2191.38,0.36
2213.30,-0.13
2235.43,-0.66
2257.78,-1.29
2280.36,-1.95
2303.17,-2.61
2326.20,-3.18
2349.46,-3.47
2372.95,-3.45
2396.68,-3.22
2420.65,-2.69
2444.86,-2.02
2469.31,-1.30
2494.00,-0.57
2518.94,0.11
2544.13,0.75
2569.57,1.33
2595.27,1.85
2621.22,2.34
2647.43,2.78
2673.90,3.16
2700.64,3.51
2727.65,3.80
2754.93,4.05
2782.48,4.26
2810.30,4.44
2838.40,4.61
2866.79,4.75
2895.46,4.89
2924.41,5.00
2953.65,5.11
2983.19,5.21
3013.02,5.30
3043.15,5.39
3073.58,5.48
3104.32,5.61
3135.36,5.77
3166.72,5.93
3198.38,6.08
3230.37,6.23
3262.67,6.38
3295.30,6.53
3328.25,6.67
3361.53,6.80
3395.15,6.91
3429.10,7.00
3463.39,7.05
3498.03,7.06
3533.01,6.99
3568.34,6.88
3604.02,6.72
3640.06,6.49
3676.46,6.22
3713.22,5.91
3750.36,5.56
3787.86,5.18
3825.74,4.79
3864.00,4.37
3902.64,3.94
3941.66,3.51
3981.08,3.06
4020.89,2.62
4061.10,2.18
4101.71,1.77
4142.73,1.38
4184.15,1.01
4226.00,0.67
4268.26,0.34
4310.94,0.03
4354.05,-0.27
4397.59,-0.55
4441.56,-0.83
4485.98,-1.09
4530.84,-1.34
4576.15,-1.57
4621.91,-1.78
4668.13,-1.96
4714.81,-2.12
4761.96,-2.27
4809.58,-2.39
4857.67,-2.50
4906.25,-2.59
4955.31,-2.66
5004.87,-2.72
5054.91,-2.76
5105.46,-2.78
5156.52,-2.79
5208.08,-2.76
5260.16,-2.67
5312.77,-2.55
5365.89,-2.35
5419.55,-2.07
5473.75,-1.73
5528.49,-1.32
5583.77,-0.82
5639.61,-0.26
5696.00,0.33
5752.96,0.95
5810.49,1.57
5868.60,2.19
5927.28,2.78
5986.56,3.32
6046.42,3.74
6106.89,4.02
6167.96,4.09
6229.64,3.93
6291.93,3.52
6354.85,2.88
6418.40,2.15
6482.58,1.32
6547.41,0.45
6612.88,-0.40
6679.01,-1.18
6745.80,-1.83
6813.26,-2.37
6881.39,-2.68
6950.21,-2.77
7019.71,-2.71
7089.91,-2.46
7160.81,-2.05
7232.41,-1.58
7304.74,-1.06
7377.79,-0.55
7451.56,-0.06
7526.08,0.44
7601.34,0.93
7677.35,1.46
7754.13,2.00
7831.67,2.59
7909.98,3.24
7989.08,3.96
8068.98,4.83
8149.67,5.75
8231.16,6.72
8313.47,7.26
8396.61,7.44
8480.57,6.68
8565.38,5.50
8651.03,4.22
8737.54,2.98
8824.92,1.89
8913.17,0.92
9002.30,-0.02
9092.32,-0.93
9183.25,-1.85
9275.08,-2.76
9367.83,-3.65
9461.51,-4.43
9556.12,-5.07
9651.68,-5.58
9748.20,-5.99
9845.68,-6.49
9944.14,-7.24
10043.58,-8.33
10144.02,-9.68
10245.46,-11.25
10347.91,-12.80
10451.39,-14.23
10555.91,-15.14
10661.46,-15.60
10768.08,-15.72
10875.76,-15.81
10984.52,-16.37
11094.36,-17.28
11205.31,-18.68
11317.36,-19.71
11430.53,-19.74
11544.84,-17.99
11660.29,-15.39
11776.89,-12.93
11894.66,-11.65
12013.60,-10.63
12133.74,-10.59
12255.08,-11.54
12377.63,-12.94
12501.41,-14.59
12626.42,-16.30
12752.68,-17.41
12880.21,-17.34
13009.01,-16.64
13139.10,-15.94
13270.49,-14.78
13403.20,-13.60
13537.23,-12.51
13672.60,-11.42
13809.33,-10.36
13947.42,-9.60
14086.90,-9.13
14227.77,-8.84
14370.04,-8.55
14513.74,-8.26
14658.88,-8.05
14805.47,-7.98
14953.52,-8.12
15103.06,-8.43
15254.09,-8.80
15406.63,-9.12
15560.70,-9.39
15716.30,-9.58
15873.47,-9.58
16032.20,-9.42
16192.52,-8.82
16354.45,-8.34
16517.99,-8.04
16683.17,-8.65
16850.01,-9.54
17018.51,-10.59
17188.69,-11.38
17360.58,-11.88
17534.18,-12.18
17709.53,-12.31
17886.62,-12.19
18065.49,-11.85
18246.14,-11.29
18428.60,-11.94
18612.89,-13.46
18799.02,-15.57
18987.01,-17.85
19176.88,-19.58
19368.65,-20.62
19562.33,-20.84
19757.96,-20.22
19955.54,-19.59
