frequency,raw
20.00,-7.61
20.20,-7.53
20.40,-7.46
20.61,-7.39
20.81,-7.33
21.02,-7.27
21.23,-7.21
21.44,-7.15
21.66,-7.08
21.87,-7.02
22.09,-6.94
22.31,-6.85
22.54,-6.77
22.76,-6.67
22.99,-6.58
23.22,-6.49
23.45,-6.40
23.69,-6.32
23.92,-6.24
24.16,-6.16
24.40,-6.09
24.65,-6.02
24.89,-5.95
25.14,-5.88
25.39,-5.81
25.65,-5.73
25.91,-5.66
26.16,-5.60
26.43,-5.53
26.69,-5.45
26.96,-5.38
27.23,-5.31
27.50,-5.24
27.77,-5.16
28.05,-5.09
28.33,-5.02
28.62,-4.96
28.90,-4.90
29.19,-4.84
29.48,-4.78
29.78,-4.72
30.08,-4.66
30.38,-4.60
30.68,-4.54
30.99,-4.48
31.30,-4.41
31.61,-4.35
31.93,-4.29
32.24,-4.23
32.57,-4.18
32.89,-4.12
33.22,-4.06
33.55,-4.01
33.89,-3.95
34.23,-3.90
34.57,-3.85
34.92,-3.80
35.27,-3.75
35.62,-3.70
35.97,-3.65
36.33,-3.60
36.70,-3.55
37.06,-3.51
37.43,-3.46
37.81,-3.42
38.19,-3.38
38.57,-3.34
38.95,-3.30
39.34,-3.25
39.74,-3.21
40.14,-3.17
40.54,-3.14
40.94,-3.11
41.35,-3.07
41.76,-3.03
42.18,-3.00
42.60,-2.96
43.03,-2.93
43.46,-2.90
43.90,-2.88
44.33,-2.85
44.78,-2.82
45.23,-2.79
45.68,-2.77
46.13,-2.75
46.60,-2.73
47.06,-2.71
47.53,-2.69
48.01,-2.67
48.49,-2.65
48.97,-2.64
49.46,-2.62
49.96,-2.61
50.46,-2.59
50.96,-2.58
51.47,-2.57
51.99,-2.56
52.51,-2.55
53.03,-2.55
53.56,-2.54
54.10,-2.54
54.64,-2.54
55.18,-2.54
55.74,-2.54
56.29,-2.54
56.86,-2.54
57.42,-2.54
58.00,-2.54
58.58,-2.55
59.16,-2.55
59.76,-2.56
60.35,-2.57
60.96,-2.59
61.57,-2.59
62.18,-2.60
62.80,-2.61
63.43,-2.62
64.07,-2.64
64.71,-2.65
65.35,-2.66
66.01,-2.68
66.67,-2.70
67.33,-2.72
68.01,-2.74
68.69,-2.76
69.37,-2.79
70.07,-2.81
70.77,-2.84
71.48,-2.86
72.19,-2.88
72.91,-2.90
73.64,-2.92
74.38,-2.94
75.12,-2.96
75.87,-3.00
76.63,-3.03
77.40,-3.06
78.17,-3.08
78.95,-3.10
79.74,-3.14
80.54,-3.17
81.35,-3.19
82.16,-3.22
82.98,-3.25
83.81,-3.28
84.65,-3.30
85.50,-3.32
86.35,-3.35
87.22,-3.38
88.09,-3.41
88.97,-3.43
89.86,-3.46
90.76,-3.48
91.66,-3.51
92.58,-3.53
93.51,-3.54
94.44,-3.57
95.39,-3.60
96.34,-3.64
97.30,-3.66
98.28,-3.70
99.26,-3.74
100.25,-3.78
101.25,-3.82
102.27,-3.85
103.29,-3.89
104.32,-3.92
105.37,-3.95
106.42,-3.98
107.48,-4.00
108.56,-4.03
109.64,-4.05
110.74,-4.07
111.85,-4.10
112.97,-4.12
114.10,-4.15
115.24,-4.17
116.39,-4.19
117.55,-4.21
118.73,-4.24
119.92,-4.26
121.12,-4.28
122.33,-4.30
123.55,-4.32
124.79,-4.35
126.03,-4.38
127.29,-4.40
128.57,-4.43
129.85,-4.46
131.15,-4.48
132.46,-4.52
133.79,-4.54
135.12,-4.57
136.48,-4.61
137.84,-4.64
139.22,-4.67
140.61,-4.71
142.02,-4.73
143.44,-4.76
144.87,-4.80
146.32,-4.83
147.78,-4.87
149.26,-4.90
150.75,-4.94
152.26,-4.97
153.78,-5.00
155.32,-5.04
156.88,-5.07
158.44,-5.10
160.03,-5.13
161.63,-5.16
163.24,-5.19
164.88,-5.20
166.53,-5.25
168.19,-5.28
169.87,-5.31
171.57,-5.33
173.29,-5.37
175.02,-5.41
176.77,-5.44
178.54,-5.47
180.32,-5.51
182.13,-5.56
183.95,-5.61
185.79,-5.65
187.65,-5.68
189.52,-5.75
191.42,-5.81
193.33,-5.86
195.27,-5.92
197.22,-5.96
199.19,-6.00
201.18,-6.04
203.19,-6.07
205.23,-6.12
207.28,-6.15
209.35,-6.18
211.44,-6.20
213.56,-6.21
215.69,-6.23
217.85,-6.24
220.03,-6.24
222.23,-6.23
224.45,-6.21
226.70,-6.17
228.96,-6.12
231.25,-6.07
233.57,-6.01
235.90,-5.95
238.26,-5.90
240.64,-5.85
243.05,-5.77
245.48,-5.74
247.93,-5.70
250.41,-5.68
252.92,-5.67
255.45,-5.67
258.00,-5.68
260.58,-5.71
263.19,-5.75
265.82,-5.80
268.48,-5.85
271.16,-5.90
273.87,-5.95
276.61,-5.99
279.38,-6.03
282.17,-6.08
284.99,-6.12
287.84,-6.15
290.72,-6.17
293.63,-6.18
296.57,-6.19
299.53,-6.19
302.53,-6.19
305.55,-6.19
308.61,-6.18
311.69,-6.16
314.81,-6.14
317.96,-6.12
321.14,-6.09
324.35,-6.07
327.59,-6.03
330.87,-6.00
334.18,-5.98
337.52,-5.96
340.90,-5.94
344.30,-5.91
347.75,-5.89
351.23,-5.87
354.74,-5.87
358.28,-5.84
361.87,-5.80
365.49,-5.75
369.14,-5.68
372.83,-5.60
376.56,-5.52
380.33,-5.45
384.13,-5.39
387.97,-5.32
391.85,-5.25
395.77,-5.18
399.73,-5.10
403.72,-5.00
407.76,-4.90
411.84,-4.82
415.96,-4.77
420.12,-4.74
424.32,-4.73
428.56,-4.76
432.85,-4.79
437.18,-4.84
441.55,-4.84
445.96,-4.81
450.42,-4.75
454.93,-4.65
459.48,-4.56
464.07,-4.48
468.71,-4.40
473.40,-4.32
478.13,-4.20
482.91,-4.05
487.74,-3.87
492.62,-3.67
497.55,-3.47
502.52,-3.28
507.55,-3.10
512.62,-2.92
517.75,-2.74
522.93,-2.58
528.16,-2.44
533.44,-2.30
538.77,-2.17
544.16,-2.08
549.60,-2.00
555.10,-1.94
560.65,-1.89
566.25,-1.85
571.92,-1.82
577.64,-1.79
583.41,-1.73
589.25,-1.65
595.14,-1.55
601.09,-1.44
607.10,-1.30
613.17,-1.16
619.30,-1.01
625.50,-0.85
631.75,-0.71
638.07,-0.60
644.45,-0.51
650.89,-0.46
657.40,-0.50
663.98,-0.58
670.62,-0.69
677.32,-0.82
684.10,-0.97
690.94,-1.14
697.85,-1.33
704.83,-1.49
711.87,-1.63
718.99,-1.70
726.18,-1.67
733.44,-1.58
740.78,-1.45
748.19,-1.33
755.67,-1.26
763.23,-1.20
770.86,-1.16
778.57,-1.11
786.35,-1.04
794.22,-0.95
802.16,-0.84
810.18,-0.73
818.28,-0.62
826.46,-0.51
834.73,-0.42
843.08,-0.33
851.51,-0.25
860.02,-0.18
868.62,-0.15
877.31,-0.12
886.08,-0.13
894.94,-0.17
903.89,-0.24
912.93,-0.31
922.06,-0.39
931.28,-0.42
940.59,-0.41
950.00,-0.36
959.50,-0.30
969.09,-0.22
978.78,-0.14
988.57,-0.07
998.46,-0.01
1008.44,0.05
1018.53,0.09
1028.71,0.14
1039.00,0.17
1049.39,0.22
1059.88,0.27
1070.48,0.30
1081.19,0.33
1092.00,0.34
1102.92,0.36
1113.95,0.38
1125.09,0.40
1136.34,0.41
1147.70,0.40
1159.18,0.38
1170.77,0.35
1182.48,0.30
1194.30,0.24
1206.25,0.17
1218.31,0.11
1230.49,0.06
1242.80,0.01
1255.22,-0.04
1267.78,-0.09
1280.45,-0.12
1293.26,-0.17
1306.19,-0.21
1319.25,-0.26
1332.45,-0.33
1345.77,-0.40
1359.23,-0.48
1372.82,-0.55
1386.55,-0.63
1400.41,-0.70
1414.42,-0.76
1428.56,-0.82
1442.85,-0.87
1457.28,-0.92
1471.85,-0.97
1486.57,-1.03
1501.43,-1.08
1516.45,-1.16
1531.61,-1.26
1546.93,-1.37
1562.40,-1.46
1578.02,-1.55
1593.80,-1.61
1609.74,-1.65
1625.84,-1.68
1642.10,-1.71
1658.52,-1.73
1675.10,-1.74
1691.85,-1.76
1708.77,-1.78
1725.86,-1.80
1743.12,-1.82
1760.55,-1.85
1778.15,-1.88
1795.94,-1.91
1813.90,-1.95
1832.03,-1.99
1850.36,-2.05
1868.86,-2.11
1887.55,-2.16
1906.42,-2.21
1925.49,-2.26
1944.74,-2.29
1964.19,-2.30
1983.83,-2.29
2003.67,-2.27
2023.71,-2.23
2043.94,-2.17
2064.38,-2.10
2085.03,-2.02
2105.88,-1.94
2126.94,-1.86
2148.20,-1.80
2169.69,-1.74
2191.38,-1.69
2213.30,-1.66
2235.43,-1.64
2257.78,-1.64
2280.36,-1.64
2303.17,-1.63
2326.20,-1.62
2349.46,-1.60
2372.95,-1.59
2396.68,-1.58
2420.65,-1.57
2444.86,-1.55
2469.31,-1.53
2494.00,-1.49
2518.94,-1.45
2544.13,-1.39
2569.57,-1.33
2595.27,-1.28
2621.22,-1.24
2647.43,-1.23
2673.90,-1.22
2700.64,-1.20
2727.65,-1.19
2754.93,-1.21
2782.48,-1.28
2810.30,-1.38
2838.40,-1.50
2866.79,-1.63
2895.46,-1.78
2924.41,-1.96
2953.65,-2.13
2983.19,-2.32
3013.02,-2.52
3043.15,-2.74
3073.58,-2.95
3104.32,-3.19
3135.36,-3.46
3166.72,-3.76
3198.38,-4.08
3230.37,-4.42
3262.67,-4.80
3295.30,-5.22
3328.25,-5.72
3361.53,-6.21
3395.15,-6.67
3429.10,-7.09
3463.39,-7.48
3498.03,-7.85
3533.01,-8.14
3568.34,-8.42
3604.02,-8.69
3640.06,-8.93
3676.46,-9.13
3713.22,-9.29
3750.36,-9.42
3787.86,-9.35
3825.74,-9.24
3864.00,-8.95
3902.64,-8.40
3941.66,-7.80
3981.08,-7.05
4020.89,-6.33
4061.10,-5.67
4101.71,-5.34
4142.73,-5.11
4184.15,-4.96
4226.00,-4.91
4268.26,-4.84
4310.94,-4.75
4354.05,-4.53
4397.59,-4.19
4441.56,-3.78
4485.98,-3.22
4530.84,-2.63
4576.15,-2.10
4621.91,-1.63
4668.13,-1.40
4714.81,-1.30
4761.96,-1.26
4809.58,-1.29
4857.67,-1.33
4906.25,-1.37
4955.31,-1.40
5004.87,-1.41
5054.91,-1.36
5105.46,-1.30
5156.52,-1.23
5208.08,-1.17
5260.16,-1.11
5312.77,-1.06
5365.89,-0.98
5419.55,-0.88
5473.75,-0.75
5528.49,-0.57
5583.77,-0.35
5639.61,-0.07
5696.00,0.23
5752.96,0.53
5810.49,0.83
5868.60,1.12
5927.28,1.40
5986.56,1.68
6046.42,1.96
6106.89,2.24
6167.96,2.50
6229.64,2.73
6291.93,2.91
6354.85,3.00
6418.40,3.04
6482.58,2.99
6547.41,2.90
6612.88,2.81
6679.01,2.77
6745.80,2.80
6813.26,2.85
6881.39,2.90
6950.21,2.92
7019.71,2.94
7089.91,2.96
7160.81,3.03
7232.41,3.13
7304.74,3.27
7377.79,3.42
7451.56,3.57
7526.08,3.72
7601.34,3.87
7677.35,4.05
7754.13,4.24
7831.67,4.51
7909.98,4.79
7989.08,5.10
8068.98,5.49
8149.67,5.95
8231.16,6.51
8313.47,6.84
8396.61,6.86
8480.57,5.90
8565.38,3.88
8651.03,1.21
8737.54,-2.05
8824.92,-5.95
8913.17,-11.09
9002.30,-16.55
9092.32,-17.47
9183.25,-13.99
9275.08,-8.90
9367.83,-4.68
9461.51,-2.11
9556.12,-0.48
9651.68,0.35
9748.20,0.54
9845.68,-0.03
9944.14,-1.03
10043.58,-2.46
10144.02,-4.20
10245.46,-5.55
10347.91,-6.40
10451.39,-6.75
10555.91,-7.49
10661.46,-8.52
10768.08,-9.78
10875.76,-11.07
10984.52,-12.39
11094.36,-13.76
11205.31,-15.20
11317.36,-16.30
11430.53,-16.67
11544.84,-15.95
11660.29,-14.94
11776.89,-11.62
11894.66,-8.02
12013.60,-4.95
12133.74,-3.22
12255.08,-2.79
12377.63,-2.90
12501.41,-3.44
12626.42,-4.33
12752.68,-5.28
12880.21,-6.51
13009.01,-7.90
13139.10,-9.30
13270.49,-11.20
13403.20,-13.18
13537.23,-15.06
13672.60,-16.96
13809.33,-18.88
13947.42,-20.66
14086.90,-20.92
14227.77,-20.25
14370.04,-18.91
14513.74,-16.91
14658.88,-15.28
14805.47,-13.96
14953.52,-13.14
15103.06,-12.58
15254.09,-12.14
15406.63,-11.63
15560.70,-11.09
15716.30,-10.51
15873.47,-10.19
16032.20,-10.01
16192.52,-10.09
16354.45,-10.55
16517.99,-11.41
16683.17,-13.78
16850.01,-16.05
17018.51,-18.07
17188.69,-18.67
17360.58,-19.50
17534.18,-20.32
17709.53,-20.57
17886.62,-19.82
18065.49,-19.06
18246.14,-18.78
18428.60,-20.16
18612.89,-22.20
18799.02,-24.66
18987.01,-27.19
19176.88,-28.93
19368.65,-30.80
19562.33,-32.59
19757.96,-33.98
19955.54,-35.36
