frequency,raw
20.00,-16.03
20.20,-15.78
20.40,-15.52
20.61,-15.26
20.81,-15.05
21.02,-14.84
21.23,-14.65
21.44,-14.44
21.66,-14.21
21.87,-13.96
22.09,-13.68
22.31,-13.37
22.54,-13.05
22.76,-12.73
22.99,-12.43
23.22,-12.15
23.45,-11.90
23.69,-11.66
23.92,-11.44
24.16,-11.21
24.40,-10.98
24.65,-10.74
24.89,-10.49
25.14,-10.24
25.39,-9.99
25.65,-9.73
25.91,-9.47
26.16,-9.22
26.43,-8.96
26.69,-8.71
26.96,-8.45
27.23,-8.21
27.50,-7.96
27.77,-7.72
28.05,-7.48
28.33,-7.23
28.62,-6.98
28.90,-6.72
29.19,-6.46
29.48,-6.19
29.78,-5.93
30.08,-5.68
30.38,-5.43
30.68,-5.19
30.99,-4.94
31.30,-4.70
31.61,-4.45
31.93,-4.21
32.24,-3.97
32.57,-3.72
32.89,-3.48
33.22,-3.23
33.55,-2.99
33.89,-2.73
34.23,-2.48
34.57,-2.23
34.92,-1.99
35.27,-1.75
35.62,-1.51
35.97,-1.28
36.33,-1.05
36.70,-0.82
37.06,-0.60
37.43,-0.37
37.81,-0.15
38.19,0.08
38.57,0.30
38.95,0.51
39.34,0.70
39.74,0.90
40.14,1.09
40.54,1.28
40.94,1.46
41.35,1.64
41.76,1.81
42.18,1.97
42.60,2.13
43.03,2.28
43.46,2.41
43.90,2.55
44.33,2.67
44.78,2.80
45.23,2.91
45.68,3.02
46.13,3.12
46.60,3.21
47.06,3.30
47.53,3.39
48.01,3.47
48.49,3.54
48.97,3.60
49.46,3.66
49.96,3.71
50.46,3.76
50.96,3.81
51.47,3.87
51.99,3.95
52.51,4.03
53.03,4.12
53.56,4.21
54.10,4.30
54.64,4.38
55.18,4.47
55.74,4.53
56.29,4.59
56.86,4.66
57.42,4.72
58.00,4.78
58.58,4.84
59.16,4.90
59.76,4.97
60.35,5.03
60.96,5.07
61.57,5.11
62.18,5.15
62.80,5.20
63.43,5.24
64.07,5.28
64.71,5.31
65.35,5.33
66.01,5.36
66.67,5.37
67.33,5.38
68.01,5.39
68.69,5.39
69.37,5.39
70.07,5.39
70.77,5.38
71.48,5.37
72.19,5.36
72.91,5.34
73.64,5.32
74.38,5.29
75.12,5.27
75.87,5.25
76.63,5.22
77.40,5.18
78.17,5.15
78.95,5.13
79.74,5.10
80.54,5.06
81.35,5.03
82.16,5.00
82.98,4.97
83.81,4.94
84.65,4.90
85.50,4.87
86.35,4.84
87.22,4.81
88.09,4.78
88.97,4.75
89.86,4.73
90.76,4.70
91.66,4.68
92.58,4.66
93.51,4.64
94.44,4.63
95.39,4.62
96.34,4.61
97.30,4.59
98.28,4.58
99.26,4.58
100.25,4.59
101.25,4.59
102.27,4.59
103.29,4.59
104.32,4.59
105.37,4.60
106.42,4.61
107.48,4.62
108.56,4.63
109.64,4.64
110.74,4.66
111.85,4.68
112.97,4.70
114.10,4.72
115.24,4.74
116.39,4.77
117.55,4.79
118.73,4.82
119.92,4.83
121.12,4.85
122.33,4.89
123.55,4.92
124.79,4.95
126.03,4.98
127.29,5.01
128.57,5.04
129.85,5.07
131.15,5.10
132.46,5.13
133.79,5.17
135.12,5.20
136.48,5.23
137.84,5.26
139.22,5.30
140.61,5.33
142.02,5.37
143.44,5.40
144.87,5.43
146.32,5.47
147.78,5.50
149.26,5.54
150.75,5.57
152.26,5.60
153.78,5.64
155.32,5.67
156.88,5.71
158.44,5.75
160.03,5.78
161.63,5.81
163.24,5.84
164.88,5.88
166.53,5.92
168.19,5.95
169.87,5.97
171.57,6.00
173.29,6.03
175.02,6.05
176.77,6.08
178.54,6.10
180.32,6.11
182.13,6.13
183.95,6.14
185.79,6.14
187.65,6.14
189.52,6.13
191.42,6.12
193.33,6.09
195.27,6.05
197.22,5.99
199.19,5.93
201.18,5.85
203.19,5.78
205.23,5.71
207.28,5.64
209.35,5.58
211.44,5.53
213.56,5.48
215.69,5.44
217.85,5.40
220.03,5.36
222.23,5.31
224.45,5.26
226.70,5.20
228.96,5.14
231.25,5.07
233.57,5.00
235.90,4.92
238.26,4.82
240.64,4.73
243.05,4.65
245.48,4.56
247.93,4.46
250.41,4.36
252.92,4.26
255.45,4.15
258.00,4.05
260.58,3.94
263.19,3.84
265.82,3.73
268.48,3.63
271.16,3.53
273.87,3.43
276.61,3.33
279.38,3.23
282.17,3.13
284.99,3.04
287.84,2.96
290.72,2.88
293.63,2.82
296.57,2.77
299.53,2.72
302.53,2.70
305.55,2.70
308.61,2.72
311.69,2.77
314.81,2.83
317.96,2.91
321.14,2.99
324.35,3.05
327.59,3.08
330.87,3.09
334.18,3.07
337.52,3.02
340.90,2.96
344.30,2.89
347.75,2.83
351.23,2.76
354.74,2.69
358.28,2.63
361.87,2.58
365.49,2.52
369.14,2.47
372.83,2.43
376.56,2.38
380.33,2.34
384.13,2.30
387.97,2.26
391.85,2.22
395.77,2.19
399.73,2.16
403.72,2.14
407.76,2.11
411.84,2.09
415.96,2.07
420.12,2.06
424.32,2.04
428.56,2.02
432.85,2.00
437.18,1.99
441.55,1.97
445.96,1.96
450.42,1.94
454.93,1.93
459.48,1.91
464.07,1.90
468.71,1.89
473.40,1.87
478.13,1.85
482.91,1.83
487.74,1.81
492.62,1.79
497.55,1.77
502.52,1.75
507.55,1.73
512.62,1.70
517.75,1.67
522.93,1.64
528.16,1.61
533.44,1.57
538.77,1.53
544.16,1.50
549.60,1.46
555.10,1.42
560.65,1.38
566.25,1.34
571.92,1.31
577.64,1.27
583.41,1.24
589.25,1.19
595.14,1.16
601.09,1.13
607.10,1.10
613.17,1.06
619.30,1.02
625.50,0.98
631.75,0.94
638.07,0.90
644.45,0.87
650.89,0.84
657.40,0.81
663.98,0.79
670.62,0.77
677.32,0.74
684.10,0.71
690.94,0.68
697.85,0.65
704.83,0.62
711.87,0.59
718.99,0.56
726.18,0.54
733.44,0.51
740.78,0.49
748.19,0.47
755.67,0.44
763.23,0.41
770.86,0.39
778.57,0.38
786.35,0.37
794.22,0.36
802.16,0.35
810.18,0.33
818.28,0.28
826.46,0.21
834.73,0.06
843.08,-0.01
851.51,-0.02
860.02,-0.01
868.62,0.01
877.31,0.03
886.08,0.04
894.94,0.03
903.89,0.03
912.93,0.03
922.06,0.04
931.28,0.03
940.59,0.02
950.00,0.03
959.50,0.02
969.09,0.02
978.78,0.01
988.57,-0.02
998.46,-0.00
1008.44,0.01
1018.53,0.02
1028.71,0.04
1039.00,0.04
1049.39,0.06
1059.88,0.09
1070.48,0.11
1081.19,0.14
1092.00,0.18
1102.92,0.22
1113.95,0.25
1125.09,0.28
1136.34,0.31
1147.70,0.36
1159.18,0.41
1170.77,0.45
1182.48,0.49
1194.30,0.50
1206.25,0.52
1218.31,0.61
1230.49,0.75
1242.80,0.89
1255.22,1.00
1267.78,1.15
1280.45,1.22
1293.26,1.19
1306.19,1.15
1319.25,1.19
1332.45,1.35
1345.77,1.48
1359.23,1.58
1372.82,1.79
1386.55,1.94
1400.41,2.03
1414.42,2.24
1428.56,2.45
1442.85,2.69
1457.28,2.91
1471.85,3.09
1486.57,3.28
1501.43,3.47
1516.45,3.56
1531.61,3.73
1546.93,3.99
1562.40,4.29
1578.02,4.57
1593.80,4.68
1609.74,4.80
1625.84,4.92
1642.10,5.22
1658.52,5.62
1675.10,6.10
1691.85,6.31
1708.77,6.79
1725.86,7.49
1743.12,8.14
1760.55,8.69
1778.15,9.18
1795.94,9.68
1813.90,10.34
1832.03,10.96
1850.36,11.42
1868.86,11.73
1887.55,12.23
1906.42,12.80
1925.49,13.36
1944.74,13.81
1964.19,14.35
1983.83,14.84
2003.67,15.23
2023.71,15.62
2043.94,15.88
2064.38,16.07
2085.03,16.15
2105.88,16.08
2126.94,15.94
2148.20,15.70
2169.69,15.40
2191.38,15.10
2213.30,14.78
2235.43,14.45
2257.78,14.12
2280.36,13.75
2303.17,13.38
2326.20,13.24
2349.46,13.05
2372.95,12.72
2396.68,12.29
2420.65,11.85
2444.86,11.58
2469.31,11.42
2494.00,11.04
2518.94,10.80
2544.13,10.60
2569.57,10.37
2595.27,10.33
2621.22,10.42
2647.43,10.27
2673.90,10.08
2700.64,9.93
2727.65,9.82
2754.93,9.67
2782.48,9.53
2810.30,9.37
2838.40,9.19
2866.79,8.98
2895.46,8.75
2924.41,8.62
2953.65,8.50
2983.19,8.35
3013.02,8.31
3043.15,8.42
3073.58,8.66
3104.32,8.32
3135.36,8.11
3166.72,8.06
3198.38,8.11
3230.37,7.84
3262.67,7.62
3295.30,7.50
3328.25,7.07
3361.53,6.65
3395.15,6.33
3429.10,5.81
3463.39,5.35
3498.03,5.01
3533.01,4.56
3568.34,4.18
3604.02,3.85
3640.06,3.35
3676.46,3.05
3713.22,2.70
3750.36,2.13
3787.86,1.89
3825.74,1.58
3864.00,0.94
3902.64,0.54
3941.66,0.19
3981.08,-0.61
4020.89,-1.21
4061.10,-1.48
4101.71,-0.87
4142.73,-0.37
4184.15,0.04
4226.00,0.42
4268.26,0.79
4310.94,1.15
4354.05,1.37
4397.59,1.44
4441.56,1.41
4485.98,1.54
4530.84,1.91
4576.15,2.18
4621.91,2.28
4668.13,2.34
4714.81,2.57
4761.96,2.84
4809.58,3.05
4857.67,3.44
4906.25,3.83
4955.31,4.16
5004.87,4.43
5054.91,4.68
5105.46,5.02
5156.52,5.45
5208.08,5.81
5260.16,6.22
5312.77,6.63
5365.89,6.95
5419.55,7.19
5473.75,7.36
5528.49,7.47
5583.77,7.45
5639.61,7.40
5696.00,7.34
5752.96,7.39
5810.49,7.46
5868.60,7.61
5927.28,7.72
5986.56,7.79
6046.42,7.86
6106.89,7.99
6167.96,8.18
6229.64,8.35
6291.93,8.50
6354.85,8.78
6418.40,9.08
6482.58,9.39
6547.41,9.52
6612.88,9.56
6679.01,9.48
6745.80,9.33
6813.26,9.12
6881.39,8.82
6950.21,8.49
7019.71,8.12
7089.91,7.70
7160.81,7.25
7232.41,6.87
7304.74,6.57
7377.79,6.36
7451.56,6.52
7526.08,6.90
7601.34,7.40
7677.35,7.68
7754.13,7.90
7831.67,8.32
7909.98,8.80
7989.08,9.38
8068.98,9.79
8149.67,10.07
8231.16,10.19
8313.47,10.34
8396.61,10.49
8480.57,10.57
8565.38,10.32
8651.03,9.81
8737.54,8.99
8824.92,7.69
8913.17,5.92
9002.30,4.01
9092.32,3.04
9183.25,1.77
9275.08,0.45
9367.83,-0.69
9461.51,-1.03
9556.12,-1.52
9651.68,-2.48
9748.20,-4.04
9845.68,-4.88
9944.14,-5.04
10043.58,-4.66
10144.02,-4.04
10245.46,-3.33
10347.91,-2.52
10451.39,-1.58
10555.91,-0.49
10661.46,0.39
10768.08,1.07
10875.76,1.59
10984.52,1.78
11094.36,1.77
11205.31,1.51
11317.36,1.14
11430.53,0.68
11544.84,0.10
11660.29,-0.51
11776.89,-1.16
11894.66,-2.17
12013.60,-3.24
12133.74,-4.85
12255.08,-7.11
12377.63,-9.77
12501.41,-13.60
12626.42,-13.14
12752.68,-11.34
12880.21,-9.54
13009.01,-7.92
13139.10,-6.29
13270.49,-7.46
13403.20,-9.18
13537.23,-6.89
13672.60,-5.26
13809.33,-4.23
13947.42,-3.45
14086.90,-2.58
14227.77,-1.67
14370.04,-0.87
14513.74,-0.26
14658.88,-0.06
14805.47,0.01
14953.52,-0.13
15103.06,-0.63
15254.09,-1.32
15406.63,-2.60
15560.70,-3.71
15716.30,-4.58
15873.47,-3.82
16032.20,-2.40
16192.52,-0.17
16354.45,1.68
16517.99,3.12
16683.17,2.95
16850.01,1.93
17018.51,0.29
17188.69,-1.86
17360.58,-3.11
17534.18,-3.63
17709.53,-3.22
17886.62,-3.11
18065.49,-3.40
18246.14,-4.18
18428.60,-5.47
18612.89,-6.66
18799.02,-7.68
18987.01,-8.41
19176.88,-9.95
19368.65,-11.79
19562.33,-14.00
19757.96,-16.68
19955.54,-19.36
