frequency,raw
20.00,-6.18
20.20,-6.09
20.40,-6.00
20.61,-5.92
20.81,-5.82
21.02,-5.73
21.23,-5.64
21.44,-5.54
21.66,-5.46
21.87,-5.37
22.09,-5.30
22.31,-5.24
22.54,-5.18
22.76,-5.12
22.99,-5.05
23.22,-4.98
23.45,-4.90
23.69,-4.82
23.92,-4.73
24.16,-4.65
24.40,-4.57
24.65,-4.49
24.89,-4.43
25.14,-4.36
25.39,-4.29
25.65,-4.22
25.91,-4.14
26.16,-4.07
26.43,-3.99
26.69,-3.92
26.96,-3.85
27.23,-3.79
27.50,-3.73
27.77,-3.66
28.05,-3.59
28.33,-3.51
28.62,-3.43
28.90,-3.36
29.19,-3.30
29.48,-3.24
29.78,-3.19
30.08,-3.14
30.38,-3.09
30.68,-3.02
30.99,-2.96
31.30,-2.89
31.61,-2.82
31.93,-2.76
32.24,-2.70
32.57,-2.64
32.89,-2.59
33.22,-2.53
33.55,-2.47
33.89,-2.42
34.23,-2.36
34.57,-2.31
34.92,-2.26
35.27,-2.20
35.62,-2.15
35.97,-2.10
36.33,-2.05
36.70,-2.00
37.06,-1.94
37.43,-1.89
37.81,-1.85
38.19,-1.80
38.57,-1.75
38.95,-1.71
39.34,-1.66
39.74,-1.61
40.14,-1.57
40.54,-1.52
40.94,-1.48
41.35,-1.44
41.76,-1.40
42.18,-1.37
42.60,-1.33
43.03,-1.29
43.46,-1.26
43.90,-1.22
44.33,-1.19
44.78,-1.16
45.23,-1.12
45.68,-1.09
46.13,-1.06
46.60,-1.04
47.06,-1.01
47.53,-0.98
48.01,-0.95
48.49,-0.92
48.97,-0.90
49.46,-0.89
49.96,-0.86
50.46,-0.83
50.96,-0.81
51.47,-0.79
51.99,-0.79
52.51,-0.78
53.03,-0.77
53.56,-0.75
54.10,-0.75
54.64,-0.75
55.18,-0.76
55.74,-0.75
56.29,-0.75
56.86,-0.75
57.42,-0.77
58.00,-0.79
58.58,-0.81
59.16,-0.82
59.76,-0.83
60.35,-0.83
60.96,-0.83
61.57,-0.82
62.18,-0.81
62.80,-0.82
63.43,-0.81
64.07,-0.79
64.71,-0.76
65.35,-0.74
66.01,-0.72
66.67,-0.71
67.33,-0.69
68.01,-0.66
68.69,-0.65
69.37,-0.63
70.07,-0.61
70.77,-0.61
71.48,-0.62
72.19,-0.62
72.91,-0.63
73.64,-0.65
74.38,-0.66
75.12,-0.67
75.87,-0.68
76.63,-0.69
77.40,-0.70
78.17,-0.71
78.95,-0.71
79.74,-0.72
80.54,-0.73
81.35,-0.74
82.16,-0.75
82.98,-0.77
83.81,-0.79
84.65,-0.81
85.50,-0.81
86.35,-0.82
87.22,-0.81
88.09,-0.81
88.97,-0.81
89.86,-0.80
90.76,-0.80
91.66,-0.79
92.58,-0.79
93.51,-0.79
94.44,-0.80
95.39,-0.80
96.34,-0.80
97.30,-0.81
98.28,-0.82
99.26,-0.85
100.25,-0.87
101.25,-0.88
102.27,-0.90
103.29,-0.93
104.32,-0.95
105.37,-0.98
106.42,-1.02
107.48,-1.05
108.56,-1.08
109.64,-1.12
110.74,-1.16
111.85,-1.20
112.97,-1.25
114.10,-1.29
115.24,-1.34
116.39,-1.39
117.55,-1.44
118.73,-1.49
119.92,-1.54
121.12,-1.58
122.33,-1.62
123.55,-1.67
124.79,-1.72
126.03,-1.77
127.29,-1.81
128.57,-1.86
129.85,-1.91
131.15,-1.96
132.46,-2.02
133.79,-2.07
135.12,-2.13
136.48,-2.18
137.84,-2.24
139.22,-2.31
140.61,-2.37
142.02,-2.43
143.44,-2.48
144.87,-2.53
146.32,-2.57
147.78,-2.61
149.26,-2.63
150.75,-2.66
152.26,-2.70
153.78,-2.73
155.32,-2.77
156.88,-2.81
158.44,-2.85
160.03,-2.90
161.63,-2.96
163.24,-3.02
164.88,-3.09
166.53,-3.16
168.19,-3.24
169.87,-3.31
171.57,-3.38
173.29,-3.46
175.02,-3.55
176.77,-3.62
178.54,-3.70
180.32,-3.79
182.13,-3.86
183.95,-3.93
185.79,-4.00
187.65,-4.07
189.52,-4.13
191.42,-4.18
193.33,-4.22
195.27,-4.26
197.22,-4.27
199.19,-4.27
201.18,-4.25
203.19,-4.22
205.23,-4.16
207.28,-4.09
209.35,-4.02
211.44,-3.95
213.56,-3.88
215.69,-3.81
217.85,-3.75
220.03,-3.69
222.23,-3.64
224.45,-3.59
226.70,-3.54
228.96,-3.49
231.25,-3.45
233.57,-3.42
235.90,-3.37
238.26,-3.34
240.64,-3.30
243.05,-3.27
245.48,-3.25
247.93,-3.23
250.41,-3.23
252.92,-3.23
255.45,-3.24
258.00,-3.25
260.58,-3.28
263.19,-3.30
265.82,-3.34
268.48,-3.39
271.16,-3.45
273.87,-3.52
276.61,-3.60
279.38,-3.66
282.17,-3.68
284.99,-3.68
287.84,-3.67
290.72,-3.65
293.63,-3.64
296.57,-3.62
299.53,-3.61
302.53,-3.61
305.55,-3.61
308.61,-3.60
311.69,-3.60
314.81,-3.60
317.96,-3.60
321.14,-3.60
324.35,-3.61
327.59,-3.62
330.87,-3.63
334.18,-3.65
337.52,-3.67
340.90,-3.71
344.30,-3.76
347.75,-3.79
351.23,-3.82
354.74,-3.82
358.28,-3.80
361.87,-3.78
365.49,-3.75
369.14,-3.72
372.83,-3.69
376.56,-3.66
380.33,-3.63
384.13,-3.60
387.97,-3.57
391.85,-3.55
395.77,-3.53
399.73,-3.50
403.72,-3.49
407.76,-3.47
411.84,-3.45
415.96,-3.43
420.12,-3.42
424.32,-3.39
428.56,-3.37
432.85,-3.34
437.18,-3.30
441.55,-3.27
445.96,-3.24
450.42,-3.20
454.93,-3.18
459.48,-3.17
464.07,-3.16
468.71,-3.15
473.40,-3.13
478.13,-3.10
482.91,-3.06
487.74,-3.03
492.62,-3.02
497.55,-3.01
502.52,-3.01
507.55,-2.99
512.62,-2.96
517.75,-2.93
522.93,-2.91
528.16,-2.89
533.44,-2.86
538.77,-2.83
544.16,-2.79
549.60,-2.76
555.10,-2.72
560.65,-2.68
566.25,-2.66
571.92,-2.63
577.64,-2.61
583.41,-2.57
589.25,-2.52
595.14,-2.48
601.09,-2.45
607.10,-2.41
613.17,-2.37
619.30,-2.34
625.50,-2.30
631.75,-2.27
638.07,-2.23
644.45,-2.19
650.89,-2.15
657.40,-2.12
663.98,-2.09
670.62,-2.04
677.32,-2.00
684.10,-1.97
690.94,-1.95
697.85,-1.93
704.83,-1.91
711.87,-1.89
718.99,-1.88
726.18,-1.81
733.44,-1.74
740.78,-1.69
748.19,-1.65
755.67,-1.59
763.23,-1.53
770.86,-1.46
778.57,-1.37
786.35,-1.27
794.22,-1.14
802.16,-1.03
810.18,-0.96
818.28,-0.91
826.46,-0.86
834.73,-0.79
843.08,-0.70
851.51,-0.62
860.02,-0.58
868.62,-0.53
877.31,-0.49
886.08,-0.49
894.94,-0.42
903.89,-0.34
912.93,-0.26
922.06,-0.23
931.28,-0.20
940.59,-0.17
950.00,-0.13
959.50,-0.12
969.09,-0.09
978.78,-0.05
988.57,-0.01
998.46,-0.01
1008.44,0.04
1018.53,0.07
1028.71,0.09
1039.00,0.12
1049.39,0.18
1059.88,0.24
1070.48,0.27
1081.19,0.28
1092.00,0.28
1102.92,0.34
1113.95,0.37
1125.09,0.38
1136.34,0.36
1147.70,0.41
1159.18,0.47
1170.77,0.53
1182.48,0.57
1194.30,0.53
1206.25,0.49
1218.31,0.51
1230.49,0.63
1242.80,0.75
1255.22,0.78
1267.78,0.86
1280.45,1.02
1293.26,1.04
1306.19,1.06
1319.25,1.04
1332.45,1.16
1345.77,1.23
1359.23,1.22
1372.82,1.39
1386.55,1.56
1400.41,1.70
1414.42,1.69
1428.56,1.69
1442.85,1.79
1457.28,1.89
1471.85,1.99
1486.57,2.00
1501.43,2.01
1516.45,2.11
1531.61,2.15
1546.93,2.10
1562.40,2.16
1578.02,2.25
1593.80,2.36
1609.74,2.32
1625.84,2.19
1642.10,2.12
1658.52,2.22
1675.10,2.47
1691.85,2.44
1708.77,2.44
1725.86,2.47
1743.12,2.75
1760.55,2.97
1778.15,3.12
1795.94,3.14
1813.90,3.21
1832.03,3.42
1850.36,3.82
1868.86,3.84
1887.55,3.90
1906.42,3.98
1925.49,4.07
1944.74,4.21
1964.19,4.15
1983.83,4.17
2003.67,4.40
2023.71,4.56
2043.94,4.71
2064.38,4.86
2085.03,5.07
2105.88,5.39
2126.94,5.72
2148.20,5.92
2169.69,6.03
2191.38,6.18
2213.30,6.40
2235.43,6.64
2257.78,6.73
2280.36,6.84
2303.17,7.03
2326.20,7.23
2349.46,7.46
2372.95,7.57
2396.68,7.60
2420.65,7.85
2444.86,8.01
2469.31,8.10
2494.00,8.23
2518.94,8.40
2544.13,8.56
2569.57,8.66
2595.27,8.82
2621.22,9.01
2647.43,9.18
2673.90,9.09
2700.64,9.04
2727.65,9.08
2754.93,9.06
2782.48,8.88
2810.30,8.66
2838.40,8.41
2866.79,8.21
2895.46,8.05
2924.41,7.64
2953.65,7.20
2983.19,6.88
3013.02,6.57
3043.15,6.26
3073.58,5.92
3104.32,5.42
3135.36,5.25
3166.72,5.10
3198.38,4.89
3230.37,4.81
3262.67,4.71
3295.30,4.56
3328.25,4.33
3361.53,4.11
3395.15,3.95
3429.10,3.84
3463.39,3.78
3498.03,3.78
3533.01,3.73
3568.34,3.76
3604.02,3.89
3640.06,4.23
3676.46,4.65
3713.22,5.02
3750.36,5.24
3787.86,5.70
3825.74,6.19
3864.00,6.83
3902.64,7.36
3941.66,7.88
3981.08,8.16
4020.89,8.27
4061.10,8.26
4101.71,8.03
4142.73,7.74
4184.15,7.41
4226.00,7.09
4268.26,6.76
4310.94,6.41
4354.05,6.08
4397.59,5.77
4441.56,5.46
4485.98,5.24
4530.84,5.00
4576.15,4.74
4621.91,4.48
4668.13,4.12
4714.81,3.71
4761.96,3.29
4809.58,2.90
4857.67,2.56
4906.25,2.43
4955.31,2.47
5004.87,2.76
5054.91,3.06
5105.46,3.26
5156.52,3.36
5208.08,3.39
5260.16,3.57
5312.77,3.89
5365.89,4.46
5419.55,4.71
5473.75,4.68
5528.49,4.52
5583.77,4.59
5639.61,4.29
5696.00,3.84
5752.96,3.70
5810.49,3.68
5868.60,4.09
5927.28,4.97
5986.56,6.43
6046.42,7.64
6106.89,8.56
6167.96,9.01
6229.64,8.96
6291.93,8.40
6354.85,7.64
6418.40,6.84
6482.58,6.01
6547.41,5.16
6612.88,4.32
6679.01,3.56
6745.80,2.96
6813.26,2.47
6881.39,2.20
6950.21,2.06
7019.71,2.04
7089.91,2.17
7160.81,2.45
7232.41,2.84
7304.74,3.33
7377.79,3.94
7451.56,4.62
7526.08,5.36
7601.34,6.13
7677.35,6.84
7754.13,7.50
7831.67,7.73
7909.98,7.71
7989.08,7.27
8068.98,6.62
8149.67,5.93
8231.16,5.24
8313.47,4.21
8396.61,2.79
8480.57,0.20
8565.38,-2.02
8651.03,-3.17
8737.54,-2.58
8824.92,-2.77
8913.17,-3.67
9002.30,-4.83
9092.32,-7.04
9183.25,-9.14
9275.08,-10.72
9367.83,-11.02
9461.51,-10.83
9556.12,-10.29
9651.68,-9.52
9748.20,-8.65
9845.68,-7.28
9944.14,-5.46
10043.58,-3.68
10144.02,-2.27
10245.46,-1.67
10347.91,-1.34
10451.39,-1.31
10555.91,-1.59
10661.46,-2.23
10768.08,-3.16
10875.76,-4.30
10984.52,-5.48
11094.36,-6.56
11205.31,-7.37
11317.36,-7.95
11430.53,-8.76
11544.84,-9.23
11660.29,-8.73
11776.89,-6.77
11894.66,-4.47
12013.60,-2.45
12133.74,-1.51
12255.08,-1.62
12377.63,-2.19
12501.41,-3.00
12626.42,-3.96
12752.68,-5.14
12880.21,-6.25
13009.01,-7.30
13139.10,-8.35
13270.49,-8.97
13403.20,-9.50
13537.23,-9.88
13672.60,-10.68
13809.33,-11.82
13947.42,-12.64
14086.90,-13.03
14227.77,-13.15
14370.04,-11.68
14513.74,-8.80
14658.88,-8.28
14805.47,-8.13
14953.52,-8.59
15103.06,-9.50
15254.09,-10.60
15406.63,-11.68
15560.70,-11.84
15716.30,-10.56
15873.47,-8.99
16032.20,-7.71
16192.52,-7.82
16354.45,-9.71
16517.99,-12.71
16683.17,-16.72
16850.01,-18.47
17018.51,-18.66
17188.69,-18.46
17360.58,-18.38
17534.18,-18.15
17709.53,-17.02
17886.62,-15.41
18065.49,-14.19
18246.14,-13.91
18428.60,-15.31
18612.89,-16.50
18799.02,-17.44
18987.01,-18.12
19176.88,-19.29
19368.65,-20.46
19562.33,-21.88
19757.96,-23.87
19955.54,-25.86
