frequency,raw
20.00,4.14
20.20,4.19
20.40,4.24
20.61,4.29
20.81,4.34
21.02,4.39
21.23,4.44
21.44,4.49
21.66,4.53
21.87,4.58
22.09,4.63
22.31,4.67
22.54,4.71
22.76,4.75
22.99,4.78
23.22,4.82
23.45,4.86
23.69,4.90
23.92,4.94
24.16,4.98
24.40,5.03
24.65,5.07
24.89,5.11
25.14,5.16
25.39,5.20
25.65,5.24
25.91,5.27
26.16,5.31
26.43,5.35
26.69,5.39
26.96,5.42
27.23,5.46
27.50,5.49
27.77,5.52
28.05,5.55
28.33,5.58
28.62,5.60
28.90,5.63
29.19,5.66
29.48,5.68
29.78,5.72
30.08,5.75
30.38,5.78
30.68,5.81
30.99,5.83
31.30,5.85
31.61,5.87
31.93,5.89
32.24,5.91
32.57,5.93
32.89,5.96
33.22,5.98
33.55,6.00
33.89,6.02
34.23,6.04
34.57,6.06
34.92,6.07
35.27,6.09
35.62,6.11
35.97,6.12
36.33,6.14
36.70,6.15
37.06,6.16
37.43,6.17
37.81,6.18
38.19,6.19
38.57,6.20
38.95,6.21
39.34,6.22
39.74,6.23
40.14,6.24
40.54,6.24
40.94,6.25
41.35,6.25
41.76,6.26
42.18,6.26
42.60,6.26
43.03,6.25
43.46,6.25
43.90,6.25
44.33,6.24
44.78,6.23
45.23,6.22
45.68,6.21
46.13,6.19
46.60,6.17
47.06,6.15
47.53,6.14
48.01,6.12
48.49,6.11
48.97,6.10
49.46,6.09
49.96,6.08
50.46,6.08
50.96,6.07
51.47,6.06
51.99,6.06
52.51,6.05
53.03,6.05
53.56,6.05
54.10,6.04
54.64,6.04
55.18,6.03
55.74,6.02
56.29,6.00
56.86,5.99
57.42,5.96
58.00,5.94
58.58,5.91
59.16,5.88
59.76,5.84
60.35,5.80
60.96,5.74
61.57,5.68
62.18,5.62
62.80,5.55
63.43,5.48
64.07,5.41
64.71,5.33
65.35,5.25
66.01,5.16
66.67,5.08
67.33,5.00
68.01,4.93
68.69,4.86
69.37,4.81
70.07,4.77
70.77,4.75
71.48,4.73
72.19,4.72
72.91,4.72
73.64,4.72
74.38,4.73
75.12,4.73
75.87,4.74
76.63,4.74
77.40,4.74
78.17,4.74
78.95,4.74
79.74,4.74
80.54,4.75
81.35,4.75
82.16,4.75
82.98,4.77
83.81,4.78
84.65,4.80
85.50,4.81
86.35,4.81
87.22,4.80
88.09,4.79
88.97,4.76
89.86,4.73
90.76,4.68
91.66,4.64
92.58,4.60
93.51,4.58
94.44,4.57
95.39,4.57
96.34,4.59
97.30,4.61
98.28,4.63
99.26,4.65
100.25,4.65
101.25,4.66
102.27,4.66
103.29,4.66
104.32,4.65
105.37,4.64
106.42,4.62
107.48,4.61
108.56,4.59
109.64,4.57
110.74,4.54
111.85,4.52
112.97,4.49
114.10,4.47
115.24,4.44
116.39,4.41
117.55,4.38
118.73,4.34
119.92,4.30
121.12,4.27
122.33,4.24
123.55,4.21
124.79,4.17
126.03,4.14
127.29,4.11
128.57,4.08
129.85,4.04
131.15,4.01
132.46,3.98
133.79,3.94
135.12,3.91
136.48,3.87
137.84,3.83
139.22,3.80
140.61,3.77
142.02,3.73
143.44,3.70
144.87,3.66
146.32,3.63
147.78,3.59
149.26,3.55
150.75,3.51
152.26,3.47
153.78,3.43
155.32,3.38
156.88,3.34
158.44,3.31
160.03,3.27
161.63,3.24
163.24,3.21
164.88,3.18
166.53,3.15
168.19,3.12
169.87,3.09
171.57,3.07
173.29,3.04
175.02,3.01
176.77,2.98
178.54,2.96
180.32,2.93
182.13,2.90
183.95,2.87
185.79,2.84
187.65,2.81
189.52,2.78
191.42,2.75
193.33,2.71
195.27,2.68
197.22,2.64
199.19,2.60
201.18,2.55
203.19,2.51
205.23,2.47
207.28,2.45
209.35,2.43
211.44,2.42
213.56,2.40
215.69,2.39
217.85,2.37
220.03,2.35
222.23,2.33
224.45,2.31
226.70,2.28
228.96,2.25
231.25,2.22
233.57,2.19
235.90,2.16
238.26,2.10
240.64,2.06
243.05,2.06
245.48,2.04
247.93,2.01
250.41,1.98
252.92,1.95
255.45,1.92
258.00,1.88
260.58,1.85
263.19,1.82
265.82,1.79
268.48,1.74
271.16,1.70
273.87,1.66
276.61,1.61
279.38,1.55
282.17,1.52
284.99,1.50
287.84,1.49
290.72,1.49
293.63,1.47
296.57,1.45
299.53,1.43
302.53,1.41
305.55,1.38
308.61,1.35
311.69,1.32
314.81,1.29
317.96,1.26
321.14,1.22
324.35,1.19
327.59,1.14
330.87,1.10
334.18,1.07
337.52,1.03
340.90,0.99
344.30,0.95
347.75,0.91
351.23,0.87
354.74,0.83
358.28,0.80
361.87,0.77
365.49,0.74
369.14,0.70
372.83,0.67
376.56,0.66
380.33,0.66
384.13,0.65
387.97,0.63
391.85,0.59
395.77,0.54
399.73,0.50
403.72,0.47
407.76,0.44
411.84,0.41
415.96,0.38
420.12,0.35
424.32,0.32
428.56,0.27
432.85,0.23
437.18,0.18
441.55,0.12
445.96,0.07
450.42,0.04
454.93,-0.01
459.48,-0.05
464.07,-0.11
468.71,-0.17
473.40,-0.23
478.13,-0.29
482.91,-0.33
487.74,-0.35
492.62,-0.38
497.55,-0.41
502.52,-0.45
507.55,-0.50
512.62,-0.58
517.75,-0.66
522.93,-0.70
528.16,-0.70
533.44,-0.73
538.77,-0.77
544.16,-0.81
549.60,-0.85
555.10,-0.88
560.65,-0.90
566.25,-0.92
571.92,-0.95
577.64,-0.99
583.41,-1.02
589.25,-1.03
595.14,-1.04
601.09,-1.05
607.10,-1.05
613.17,-1.06
619.30,-1.05
625.50,-1.04
631.75,-1.02
638.07,-1.02
644.45,-0.99
650.89,-0.97
657.40,-0.99
663.98,-1.00
670.62,-1.03
677.32,-1.04
684.10,-1.06
690.94,-1.07
697.85,-1.06
704.83,-1.05
711.87,-1.03
718.99,-1.02
726.18,-1.01
733.44,-0.99
740.78,-0.94
748.19,-0.90
755.67,-0.84
763.23,-0.79
770.86,-0.71
778.57,-0.63
786.35,-0.56
794.22,-0.48
802.16,-0.39
810.18,-0.30
818.28,-0.23
826.46,-0.16
834.73,-0.11
843.08,-0.07
851.51,-0.04
860.02,-0.01
868.62,0.04
877.31,0.08
886.08,0.09
894.94,0.10
903.89,0.11
912.93,0.12
922.06,0.17
931.28,0.18
940.59,0.19
950.00,0.23
959.50,0.18
969.09,0.14
978.78,0.10
988.57,0.05
998.46,-0.00
1008.44,0.02
1018.53,0.03
1028.71,-0.01
1039.00,-0.07
1049.39,-0.14
1059.88,-0.19
1070.48,-0.26
1081.19,-0.36
1092.00,-0.47
1102.92,-0.60
1113.95,-0.59
1125.09,-0.56
1136.34,-0.56
1147.70,-0.62
1159.18,-0.59
1170.77,-0.54
1182.48,-0.61
1194.30,-0.60
1206.25,-0.59
1218.31,-0.62
1230.49,-0.56
1242.80,-0.51
1255.22,-0.49
1267.78,-0.37
1280.45,-0.34
1293.26,-0.32
1306.19,-0.31
1319.25,-0.29
1332.45,-0.30
1345.77,-0.25
1359.23,-0.13
1372.82,0.01
1386.55,0.11
1400.41,0.14
1414.42,0.21
1428.56,0.28
1442.85,0.30
1457.28,0.35
1471.85,0.43
1486.57,0.56
1501.43,0.69
1516.45,0.77
1531.61,0.86
1546.93,0.96
1562.40,1.05
1578.02,1.15
1593.80,1.33
1609.74,1.51
1625.84,1.69
1642.10,1.78
1658.52,1.90
1675.10,2.03
1691.85,2.19
1708.77,2.33
1725.86,2.45
1743.12,2.51
1760.55,2.65
1778.15,2.83
1795.94,2.97
1813.90,3.13
1832.03,3.29
1850.36,3.43
1868.86,3.63
1887.55,3.80
1906.42,3.97
1925.49,4.16
1944.74,4.42
1964.19,4.59
1983.83,4.76
2003.67,4.97
2023.71,5.18
2043.94,5.36
2064.38,5.53
2085.03,5.75
2105.88,6.00
2126.94,6.23
2148.20,6.42
2169.69,6.62
2191.38,6.82
2213.30,7.02
2235.43,7.23
2257.78,7.42
2280.36,7.59
2303.17,7.75
2326.20,7.97
2349.46,8.20
2372.95,8.43
2396.68,8.65
2420.65,8.84
2444.86,9.01
2469.31,9.19
2494.00,9.34
2518.94,9.51
2544.13,9.69
2569.57,9.81
2595.27,9.96
2621.22,10.13
2647.43,10.29
2673.90,10.42
2700.64,10.54
2727.65,10.64
2754.93,10.71
2782.48,10.77
2810.30,10.84
2838.40,10.92
2866.79,10.88
2895.46,10.78
2924.41,10.80
2953.65,10.82
2983.19,10.77
3013.02,10.75
3043.15,10.74
3073.58,10.53
3104.32,10.44
3135.36,10.26
3166.72,10.07
3198.38,9.89
3230.37,9.63
3262.67,9.38
3295.30,9.16
3328.25,8.89
3361.53,8.63
3395.15,8.42
3429.10,8.22
3463.39,7.99
3498.03,7.72
3533.01,7.43
3568.34,7.18
3604.02,6.98
3640.06,6.99
3676.46,6.87
3713.22,6.81
3750.36,6.95
3787.86,7.12
3825.74,7.27
3864.00,7.26
3902.64,7.36
3941.66,7.47
3981.08,7.66
4020.89,7.83
4061.10,7.97
4101.71,7.90
4142.73,7.99
4184.15,8.20
4226.00,8.26
4268.26,8.31
4310.94,8.37
4354.05,8.42
4397.59,8.42
4441.56,8.39
4485.98,8.49
4530.84,8.55
4576.15,8.58
4621.91,8.59
4668.13,8.39
4714.81,8.21
4761.96,8.01
4809.58,7.69
4857.67,7.33
4906.25,6.91
4955.31,6.44
5004.87,5.88
5054.91,5.12
5105.46,4.30
5156.52,3.44
5208.08,2.58
5260.16,1.48
5312.77,0.28
5365.89,-1.07
5419.55,-2.72
5473.75,-4.48
5528.49,-6.32
5583.77,-8.52
5639.61,-10.29
5696.00,-11.90
5752.96,-12.34
5810.49,-12.59
5868.60,-12.39
5927.28,-12.16
5986.56,-11.88
6046.42,-11.73
6106.89,-11.72
6167.96,-11.86
6229.64,-12.01
6291.93,-12.15
6354.85,-12.13
6418.40,-12.06
6482.58,-11.92
6547.41,-11.69
6612.88,-11.44
6679.01,-11.22
6745.80,-11.23
6813.26,-11.32
6881.39,-11.30
6950.21,-11.62
7019.71,-12.10
7089.91,-12.65
7160.81,-14.05
7232.41,-14.53
7304.74,-13.70
7377.79,-12.37
7451.56,-11.37
7526.08,-10.62
7601.34,-10.03
7677.35,-9.19
7754.13,-8.27
7831.67,-7.41
7909.98,-6.50
7989.08,-5.53
8068.98,-4.51
8149.67,-3.46
8231.16,-2.37
8313.47,-1.23
8396.61,-0.14
8480.57,0.70
8565.38,0.93
8651.03,0.60
8737.54,-0.40
8824.92,-2.01
8913.17,-3.85
9002.30,-5.75
9092.32,-8.05
9183.25,-10.57
9275.08,-12.92
9367.83,-14.57
9461.51,-15.70
9556.12,-16.98
9651.68,-17.24
9748.20,-15.09
9845.68,-12.77
9944.14,-11.11
10043.58,-10.07
10144.02,-9.35
10245.46,-7.04
10347.91,-5.74
10451.39,-5.75
10555.91,-6.11
10661.46,-6.61
10768.08,-7.14
10875.76,-7.37
10984.52,-6.87
11094.36,-5.99
11205.31,-4.73
11317.36,-3.55
11430.53,-2.35
11544.84,-1.15
11660.29,0.05
11776.89,1.11
11894.66,1.15
12013.60,0.98
12133.74,0.14
12255.08,-1.20
12377.63,-2.64
12501.41,-4.00
12626.42,-5.14
12752.68,-6.07
12880.21,-6.53
13009.01,-6.75
13139.10,-6.97
13270.49,-6.61
13403.20,-6.12
13537.23,-5.32
13672.60,-4.49
13809.33,-3.63
13947.42,-2.71
14086.90,-2.00
14227.77,-1.43
14370.04,-1.24
14513.74,-1.53
14658.88,-2.68
14805.47,-4.20
14953.52,-6.36
15103.06,-8.45
15254.09,-10.50
15406.63,-11.78
15560.70,-11.55
15716.30,-9.00
15873.47,-6.55
16032.20,-4.20
16192.52,-2.21
16354.45,-1.11
16517.99,-0.65
16683.17,-1.40
16850.01,-2.10
17018.51,-2.65
17188.69,-2.19
17360.58,-1.26
17534.18,-0.11
17709.53,0.88
17886.62,0.57
18065.49,-0.69
18246.14,-2.91
18428.60,-5.33
18612.89,-7.63
18799.02,-10.16
18987.01,-13.56
19176.88,-17.55
19368.65,-17.35
19562.33,-15.21
19757.96,-14.53
19955.54,-13.85
