frequency,raw
20.00,-6.21
20.20,-6.14
20.40,-6.08
20.61,-6.01
20.81,-5.95
21.02,-5.89
21.23,-5.84
21.44,-5.78
21.66,-5.72
21.87,-5.66
22.09,-5.60
22.31,-5.54
22.54,-5.48
22.76,-5.42
22.99,-5.36
23.22,-5.30
23.45,-5.24
23.69,-5.18
23.92,-5.12
24.16,-5.06
24.40,-4.99
24.65,-4.92
24.89,-4.84
25.14,-4.76
25.39,-4.69
25.65,-4.62
25.91,-4.56
26.16,-4.51
26.43,-4.46
26.69,-4.42
26.96,-4.37
27.23,-4.32
27.50,-4.27
27.77,-4.21
28.05,-4.16
28.33,-4.10
28.62,-4.04
28.90,-3.98
29.19,-3.92
29.48,-3.86
29.78,-3.81
30.08,-3.75
30.38,-3.70
30.68,-3.65
30.99,-3.61
31.30,-3.56
31.61,-3.51
31.93,-3.46
32.24,-3.41
32.57,-3.36
32.89,-3.30
33.22,-3.25
33.55,-3.19
33.89,-3.14
34.23,-3.09
34.57,-3.05
34.92,-3.00
35.27,-2.96
35.62,-2.92
35.97,-2.88
36.33,-2.84
36.70,-2.80
37.06,-2.76
37.43,-2.72
37.81,-2.68
38.19,-2.63
38.57,-2.59
38.95,-2.55
39.34,-2.52
39.74,-2.48
40.14,-2.44
40.54,-2.40
40.94,-2.35
41.35,-2.30
41.76,-2.26
42.18,-2.22
42.60,-2.19
43.03,-2.16
43.46,-2.12
43.90,-2.08
44.33,-2.04
44.78,-2.00
45.23,-1.97
45.68,-1.94
46.13,-1.91
46.60,-1.88
47.06,-1.85
47.53,-1.83
48.01,-1.80
48.49,-1.77
48.97,-1.73
49.46,-1.70
49.96,-1.67
50.46,-1.64
50.96,-1.62
51.47,-1.60
51.99,-1.59
52.51,-1.57
53.03,-1.56
53.56,-1.55
54.10,-1.54
54.64,-1.53
55.18,-1.52
55.74,-1.50
56.29,-1.47
56.86,-1.44
57.42,-1.41
58.00,-1.38
58.58,-1.36
59.16,-1.34
59.76,-1.32
60.35,-1.30
60.96,-1.27
61.57,-1.24
62.18,-1.21
62.80,-1.19
63.43,-1.18
64.07,-1.18
64.71,-1.18
65.35,-1.18
66.01,-1.18
66.67,-1.19
67.33,-1.21
68.01,-1.24
68.69,-1.30
69.37,-1.36
70.07,-1.43
70.77,-1.51
71.48,-1.60
72.19,-1.69
72.91,-1.79
73.64,-1.87
74.38,-1.94
75.12,-1.99
75.87,-2.01
76.63,-2.04
77.40,-2.06
78.17,-2.09
78.95,-2.13
79.74,-2.17
80.54,-2.22
81.35,-2.26
82.16,-2.27
82.98,-2.26
83.81,-2.23
84.65,-2.15
85.50,-2.07
86.35,-1.98
87.22,-1.90
88.09,-1.81
88.97,-1.73
89.86,-1.65
90.76,-1.59
91.66,-1.53
92.58,-1.48
93.51,-1.43
94.44,-1.39
95.39,-1.35
96.34,-1.31
97.30,-1.27
98.28,-1.24
99.26,-1.23
100.25,-1.22
101.25,-1.21
102.27,-1.20
103.29,-1.20
104.32,-1.19
105.37,-1.18
106.42,-1.17
107.48,-1.15
108.56,-1.14
109.64,-1.13
110.74,-1.12
111.85,-1.12
112.97,-1.12
114.10,-1.12
115.24,-1.12
116.39,-1.12
117.55,-1.12
118.73,-1.13
119.92,-1.13
121.12,-1.13
122.33,-1.12
123.55,-1.13
124.79,-1.13
126.03,-1.14
127.29,-1.14
128.57,-1.15
129.85,-1.15
131.15,-1.16
132.46,-1.17
133.79,-1.18
135.12,-1.18
136.48,-1.19
137.84,-1.21
139.22,-1.22
140.61,-1.24
142.02,-1.26
143.44,-1.28
144.87,-1.30
146.32,-1.32
147.78,-1.34
149.26,-1.35
150.75,-1.36
152.26,-1.36
153.78,-1.36
155.32,-1.36
156.88,-1.36
158.44,-1.37
160.03,-1.38
161.63,-1.39
163.24,-1.40
164.88,-1.41
166.53,-1.42
168.19,-1.43
169.87,-1.44
171.57,-1.46
173.29,-1.47
175.02,-1.49
176.77,-1.50
178.54,-1.52
180.32,-1.53
182.13,-1.55
183.95,-1.57
185.79,-1.59
187.65,-1.61
189.52,-1.62
191.42,-1.63
193.33,-1.64
195.27,-1.65
197.22,-1.66
199.19,-1.67
201.18,-1.69
203.19,-1.70
205.23,-1.72
207.28,-1.74
209.35,-1.76
211.44,-1.77
213.56,-1.77
215.69,-1.78
217.85,-1.78
220.03,-1.78
222.23,-1.78
224.45,-1.79
226.70,-1.79
228.96,-1.80
231.25,-1.81
233.57,-1.82
235.90,-1.82
238.26,-1.86
240.64,-1.87
243.05,-1.85
245.48,-1.85
247.93,-1.86
250.41,-1.87
252.92,-1.88
255.45,-1.89
258.00,-1.90
260.58,-1.90
263.19,-1.91
265.82,-1.91
268.48,-1.92
271.16,-1.93
273.87,-1.94
276.61,-1.96
279.38,-1.98
282.17,-1.99
284.99,-2.00
287.84,-2.02
290.72,-2.03
293.63,-2.04
296.57,-2.05
299.53,-2.06
302.53,-2.07
305.55,-2.08
308.61,-2.08
311.69,-2.09
314.81,-2.11
317.96,-2.12
321.14,-2.14
324.35,-2.15
327.59,-2.16
330.87,-2.17
334.18,-2.17
337.52,-2.18
340.90,-2.18
344.30,-2.19
347.75,-2.18
351.23,-2.18
354.74,-2.16
358.28,-2.15
361.87,-2.14
365.49,-2.14
369.14,-2.13
372.83,-2.12
376.56,-2.11
380.33,-2.10
384.13,-2.09
387.97,-2.08
391.85,-2.08
395.77,-2.07
399.73,-2.05
403.72,-2.04
407.76,-2.03
411.84,-2.01
415.96,-2.01
420.12,-2.00
424.32,-2.00
428.56,-1.99
432.85,-1.99
437.18,-1.99
441.55,-1.98
445.96,-1.98
450.42,-1.98
454.93,-1.98
459.48,-1.98
464.07,-1.98
468.71,-1.98
473.40,-1.97
478.13,-1.96
482.91,-1.94
487.74,-1.93
492.62,-1.92
497.55,-1.91
502.52,-1.91
507.55,-1.91
512.62,-1.93
517.75,-1.96
522.93,-1.98
528.16,-1.99
533.44,-1.98
538.77,-1.96
544.16,-1.96
549.60,-1.95
555.10,-1.95
560.65,-1.95
566.25,-1.94
571.92,-1.94
577.64,-1.94
583.41,-1.94
589.25,-1.94
595.14,-1.94
601.09,-1.92
607.10,-1.89
613.17,-1.86
619.30,-1.83
625.50,-1.80
631.75,-1.78
638.07,-1.74
644.45,-1.70
650.89,-1.67
657.40,-1.64
663.98,-1.61
670.62,-1.58
677.32,-1.55
684.10,-1.52
690.94,-1.49
697.85,-1.47
704.83,-1.43
711.87,-1.40
718.99,-1.37
726.18,-1.32
733.44,-1.28
740.78,-1.25
748.19,-1.23
755.67,-1.20
763.23,-1.17
770.86,-1.13
778.57,-1.11
786.35,-1.12
794.22,-1.25
802.16,-1.44
810.18,-1.67
818.28,-1.69
826.46,-1.62
834.73,-1.46
843.08,-1.32
851.51,-1.21
860.02,-1.12
868.62,-1.04
877.31,-0.97
886.08,-0.90
894.94,-0.84
903.89,-0.77
912.93,-0.69
922.06,-0.63
931.28,-0.56
940.59,-0.48
950.00,-0.43
959.50,-0.36
969.09,-0.28
978.78,-0.19
988.57,-0.09
998.46,-0.02
1008.44,0.08
1018.53,0.19
1028.71,0.29
1039.00,0.38
1049.39,0.49
1059.88,0.60
1070.48,0.65
1081.19,0.70
1092.00,0.75
1102.92,0.80
1113.95,0.86
1125.09,0.92
1136.34,0.98
1147.70,0.99
1159.18,1.09
1170.77,1.22
1182.48,1.27
1194.30,1.33
1206.25,1.39
1218.31,1.48
1230.49,1.61
1242.80,1.73
1255.22,1.82
1267.78,1.91
1280.45,2.00
1293.26,2.07
1306.19,2.14
1319.25,2.21
1332.45,2.27
1345.77,2.35
1359.23,2.46
1372.82,2.56
1386.55,2.68
1400.41,2.82
1414.42,2.83
1428.56,2.84
1442.85,2.94
1457.28,3.00
1471.85,3.02
1486.57,3.08
1501.43,3.16
1516.45,3.25
1531.61,3.26
1546.93,3.14
1562.40,3.15
1578.02,3.21
1593.80,3.38
1609.74,3.40
1625.84,3.31
1642.10,3.23
1658.52,3.27
1675.10,3.41
1691.85,3.49
1708.77,3.41
1725.86,3.22
1743.12,3.45
1760.55,3.64
1778.15,3.79
1795.94,3.87
1813.90,3.87
1832.03,4.02
1850.36,4.42
1868.86,4.28
1887.55,4.31
1906.42,4.43
1925.49,4.57
1944.74,4.66
1964.19,4.70
1983.83,4.80
2003.67,4.96
2023.71,4.99
2043.94,5.19
2064.38,5.43
2085.03,5.59
2105.88,5.82
2126.94,6.11
2148.20,6.39
2169.69,6.50
2191.38,6.64
2213.30,6.86
2235.43,7.10
2257.78,7.14
2280.36,7.21
2303.17,7.37
2326.20,7.47
2349.46,7.61
2372.95,7.81
2396.68,8.05
2420.65,8.41
2444.86,8.62
2469.31,8.74
2494.00,8.81
2518.94,8.96
2544.13,9.12
2569.57,9.16
2595.27,9.23
2621.22,9.32
2647.43,9.36
2673.90,9.45
2700.64,9.53
2727.65,9.63
2754.93,9.86
2782.48,9.89
2810.30,9.90
2838.40,9.95
2866.79,9.93
2895.46,9.87
2924.41,9.75
2953.65,9.63
2983.19,9.58
3013.02,9.49
3043.15,9.38
3073.58,9.50
3104.32,9.24
3135.36,9.19
3166.72,9.13
3198.38,9.02
3230.37,9.04
3262.67,8.99
3295.30,8.84
3328.25,8.72
3361.53,8.55
3395.15,8.27
3429.10,7.92
3463.39,7.68
3498.03,7.62
3533.01,7.45
3568.34,7.32
3604.02,7.20
3640.06,6.89
3676.46,6.57
3713.22,6.27
3750.36,6.01
3787.86,5.76
3825.74,5.48
3864.00,5.06
3902.64,4.68
3941.66,4.30
3981.08,4.06
4020.89,3.83
4061.10,3.57
4101.71,3.33
4142.73,3.09
4184.15,2.87
4226.00,2.78
4268.26,2.72
4310.94,2.72
4354.05,2.73
4397.59,2.78
4441.56,2.84
4485.98,2.77
4530.84,2.84
4576.15,2.99
4621.91,3.15
4668.13,3.23
4714.81,3.31
4761.96,3.40
4809.58,3.56
4857.67,3.69
4906.25,3.72
4955.31,3.70
5004.87,3.65
5054.91,3.60
5105.46,3.52
5156.52,3.43
5208.08,3.37
5260.16,3.28
5312.77,3.18
5365.89,3.12
5419.55,3.09
5473.75,3.07
5528.49,3.05
5583.77,3.05
5639.61,3.06
5696.00,3.08
5752.96,3.11
5810.49,3.12
5868.60,3.10
5927.28,3.05
5986.56,2.95
6046.42,2.68
6106.89,2.25
6167.96,1.67
6229.64,1.08
6291.93,0.53
6354.85,0.21
6418.40,0.02
6482.58,0.07
6547.41,0.27
6612.88,0.51
6679.01,0.68
6745.80,0.79
6813.26,0.84
6881.39,0.77
6950.21,0.67
7019.71,0.54
7089.91,0.39
7160.81,0.28
7232.41,0.17
7304.74,0.08
7377.79,0.15
7451.56,0.30
7526.08,0.46
7601.34,0.60
7677.35,0.85
7754.13,1.14
7831.67,1.62
7909.98,2.19
7989.08,2.91
8068.98,3.76
8149.67,4.67
8231.16,5.66
8313.47,6.68
8396.61,7.50
8480.57,7.49
8565.38,6.54
8651.03,5.15
8737.54,3.47
8824.92,1.89
8913.17,0.55
9002.30,-0.68
9092.32,-1.80
9183.25,-2.80
9275.08,-3.68
9367.83,-4.38
9461.51,-5.18
9556.12,-5.95
9651.68,-6.58
9748.20,-6.99
9845.68,-7.61
9944.14,-8.40
10043.58,-9.30
10144.02,-10.23
10245.46,-10.71
10347.91,-11.20
10451.39,-11.75
10555.91,-12.39
10661.46,-12.92
10768.08,-13.31
10875.76,-13.31
10984.52,-12.45
11094.36,-11.19
11205.31,-9.61
11317.36,-8.12
11430.53,-6.79
11544.84,-5.86
11660.29,-5.20
11776.89,-4.84
11894.66,-5.02
12013.60,-5.25
12133.74,-5.31
12255.08,-5.26
12377.63,-5.22
12501.41,-5.47
12626.42,-6.00
12752.68,-6.48
12880.21,-7.18
13009.01,-8.00
13139.10,-8.82
13270.49,-9.91
13403.20,-10.78
13537.23,-8.61
13672.60,-6.91
13809.33,-5.70
13947.42,-5.61
14086.90,-5.68
14227.77,-5.85
14370.04,-5.85
14513.74,-5.63
14658.88,-4.85
14805.47,-4.29
14953.52,-4.08
15103.06,-4.10
15254.09,-4.21
15406.63,-4.03
15560.70,-3.68
15716.30,-3.06
15873.47,-1.96
16032.20,-0.62
16192.52,1.15
16354.45,2.17
16517.99,2.52
16683.17,0.88
16850.01,-0.79
17018.51,-2.47
17188.69,-3.97
17360.58,-5.38
17534.18,-6.55
17709.53,-6.84
17886.62,-6.35
18065.49,-5.62
18246.14,-4.89
18428.60,-4.92
18612.89,-5.38
18799.02,-6.15
18987.01,-7.07
19176.88,-8.07
19368.65,-9.25
19562.33,-10.71
19757.96,-12.53
19955.54,-14.35
