frequency,raw
20.00,6.24
20.20,6.31
20.40,6.39
20.61,6.46
20.81,6.53
21.02,6.60
21.23,6.66
21.44,6.73
21.66,6.80
21.87,6.86
22.09,6.92
22.31,6.99
22.54,7.05
22.76,7.12
22.99,7.19
23.22,7.26
23.45,7.34
23.69,7.41
23.92,7.48
24.16,7.54
24.40,7.60
24.65,7.66
24.89,7.71
25.14,7.77
25.39,7.82
25.65,7.87
25.91,7.92
26.16,7.97
26.43,8.02
26.69,8.07
26.96,8.12
27.23,8.17
27.50,8.22
27.77,8.27
28.05,8.31
28.33,8.36
28.62,8.40
28.90,8.44
29.19,8.48
29.48,8.51
29.78,8.54
30.08,8.57
30.38,8.60
30.68,8.64
30.99,8.67
31.30,8.71
31.61,8.75
31.93,8.79
32.24,8.82
32.57,8.85
32.89,8.88
33.22,8.89
33.55,8.91
33.89,8.93
34.23,8.94
34.57,8.96
34.92,8.97
35.27,8.98
35.62,8.99
35.97,9.00
36.33,9.01
36.70,9.03
37.06,9.04
37.43,9.04
37.81,9.05
38.19,9.06
38.57,9.07
38.95,9.08
39.34,9.10
39.74,9.12
40.14,9.14
40.54,9.16
40.94,9.18
41.35,9.21
41.76,9.24
42.18,9.26
42.60,9.29
43.03,9.31
43.46,9.34
43.90,9.36
44.33,9.38
44.78,9.37
45.23,9.35
45.68,9.32
46.13,9.29
46.60,9.27
47.06,9.26
47.53,9.25
48.01,9.24
48.49,9.24
48.97,9.24
49.46,9.25
49.96,9.25
50.46,9.26
50.96,9.27
51.47,9.29
51.99,9.32
52.51,9.35
53.03,9.39
53.56,9.42
54.10,9.46
54.64,9.49
55.18,9.52
55.74,9.55
56.29,9.58
56.86,9.59
57.42,9.60
58.00,9.60
58.58,9.60
59.16,9.60
59.76,9.60
60.35,9.59
60.96,9.57
61.57,9.57
62.18,9.57
62.80,9.56
63.43,9.57
64.07,9.58
64.71,9.60
65.35,9.62
66.01,9.65
66.67,9.69
67.33,9.73
68.01,9.77
68.69,9.82
69.37,9.86
70.07,9.90
70.77,9.93
71.48,9.95
72.19,9.98
72.91,10.00
73.64,10.02
74.38,10.05
75.12,10.07
75.87,10.11
76.63,10.15
77.40,10.19
78.17,10.23
78.95,10.28
79.74,10.34
80.54,10.39
81.35,10.45
82.16,10.50
82.98,10.55
83.81,10.60
84.65,10.65
85.50,10.70
86.35,10.75
87.22,10.79
88.09,10.84
88.97,10.88
89.86,10.92
90.76,10.95
91.66,10.98
92.58,11.02
93.51,11.05
94.44,11.08
95.39,11.11
96.34,11.14
97.30,11.17
98.28,11.19
99.26,11.22
100.25,11.24
101.25,11.27
102.27,11.29
103.29,11.31
104.32,11.34
105.37,11.35
106.42,11.37
107.48,11.39
108.56,11.40
109.64,11.42
110.74,11.43
111.85,11.44
112.97,11.46
114.10,11.47
115.24,11.48
116.39,11.48
117.55,11.49
118.73,11.49
119.92,11.49
121.12,11.49
122.33,11.49
123.55,11.49
124.79,11.49
126.03,11.48
127.29,11.48
128.57,11.48
129.85,11.47
131.15,11.47
132.46,11.46
133.79,11.46
135.12,11.44
136.48,11.42
137.84,11.40
139.22,11.38
140.61,11.37
142.02,11.36
143.44,11.35
144.87,11.34
146.32,11.34
147.78,11.33
149.26,11.31
150.75,11.29
152.26,11.28
153.78,11.26
155.32,11.24
156.88,11.22
158.44,11.20
160.03,11.18
161.63,11.15
163.24,11.12
164.88,11.10
166.53,11.06
168.19,11.03
169.87,11.00
171.57,10.96
173.29,10.91
175.02,10.87
176.77,10.82
178.54,10.76
180.32,10.70
182.13,10.67
183.95,10.62
185.79,10.56
187.65,10.51
189.52,10.45
191.42,10.39
193.33,10.33
195.27,10.26
197.22,10.19
199.19,10.12
201.18,10.04
203.19,9.96
205.23,9.89
207.28,9.80
209.35,9.72
211.44,9.64
213.56,9.56
215.69,9.47
217.85,9.38
220.03,9.29
222.23,9.19
224.45,9.09
226.70,8.99
228.96,8.89
231.25,8.80
233.57,8.70
235.90,8.60
238.26,8.49
240.64,8.38
243.05,8.31
245.48,8.22
247.93,8.12
250.41,8.01
252.92,7.89
255.45,7.77
258.00,7.65
260.58,7.51
263.19,7.38
265.82,7.24
268.48,7.10
271.16,6.97
273.87,6.85
276.61,6.74
279.38,6.63
282.17,6.53
284.99,6.43
287.84,6.34
290.72,6.25
293.63,6.16
296.57,6.07
299.53,5.98
302.53,5.90
305.55,5.81
308.61,5.72
311.69,5.63
314.81,5.54
317.96,5.45
321.14,5.36
324.35,5.26
327.59,5.16
330.87,5.05
334.18,4.95
337.52,4.84
340.90,4.72
344.30,4.59
347.75,4.45
351.23,4.31
354.74,4.20
358.28,4.16
361.87,4.14
365.49,4.14
369.14,4.12
372.83,4.08
376.56,4.02
380.33,3.94
384.13,3.86
387.97,3.77
391.85,3.66
395.77,3.56
399.73,3.46
403.72,3.37
407.76,3.27
411.84,3.18
415.96,3.08
420.12,2.99
424.32,2.91
428.56,2.83
432.85,2.75
437.18,2.67
441.55,2.58
445.96,2.48
450.42,2.38
454.93,2.29
459.48,2.17
464.07,2.07
468.71,1.99
473.40,1.92
478.13,1.84
482.91,1.75
487.74,1.67
492.62,1.60
497.55,1.53
502.52,1.47
507.55,1.41
512.62,1.36
517.75,1.31
522.93,1.27
528.16,1.24
533.44,1.19
538.77,1.14
544.16,1.11
549.60,1.06
555.10,1.01
560.65,0.97
566.25,0.92
571.92,0.86
577.64,0.81
583.41,0.75
589.25,0.69
595.14,0.65
601.09,0.60
607.10,0.54
613.17,0.51
619.30,0.47
625.50,0.43
631.75,0.40
638.07,0.39
644.45,0.37
650.89,0.35
657.40,0.34
663.98,0.31
670.62,0.29
677.32,0.30
684.10,0.30
690.94,0.28
697.85,0.27
704.83,0.28
711.87,0.29
718.99,0.31
726.18,0.29
733.44,0.29
740.78,0.29
748.19,0.34
755.67,0.39
763.23,0.43
770.86,0.44
778.57,0.44
786.35,0.45
794.22,0.46
802.16,0.49
810.18,0.52
818.28,0.53
826.46,0.53
834.73,0.53
843.08,0.53
851.51,0.53
860.02,0.48
868.62,0.49
877.31,0.51
886.08,0.48
894.94,0.43
903.89,0.37
912.93,0.29
922.06,0.26
931.28,0.20
940.59,0.14
950.00,0.12
959.50,0.10
969.09,0.08
978.78,0.06
988.57,0.03
998.46,0.01
1008.44,-0.05
1018.53,-0.10
1028.71,-0.13
1039.00,-0.14
1049.39,-0.16
1059.88,-0.17
1070.48,-0.20
1081.19,-0.20
1092.00,-0.18
1102.92,-0.14
1113.95,-0.06
1125.09,0.02
1136.34,0.09
1147.70,0.11
1159.18,0.17
1170.77,0.25
1182.48,0.30
1194.30,0.48
1206.25,0.67
1218.31,0.78
1230.49,0.92
1242.80,1.06
1255.22,1.22
1267.78,1.35
1280.45,1.42
1293.26,1.59
1306.19,1.75
1319.25,1.89
1332.45,2.16
1345.77,2.36
1359.23,2.47
1372.82,2.74
1386.55,2.94
1400.41,3.06
1414.42,3.22
1428.56,3.37
1442.85,3.47
1457.28,3.58
1471.85,3.72
1486.57,3.82
1501.43,3.90
1516.45,3.97
1531.61,4.03
1546.93,4.07
1562.40,4.04
1578.02,4.00
1593.80,3.94
1609.74,3.84
1625.84,3.70
1642.10,3.53
1658.52,3.31
1675.10,3.04
1691.85,2.67
1708.77,2.25
1725.86,1.77
1743.12,1.24
1760.55,0.66
1778.15,0.06
1795.94,-0.51
1813.90,-1.11
1832.03,-1.69
1850.36,-2.26
1868.86,-2.71
1887.55,-3.09
1906.42,-3.37
1925.49,-3.55
1944.74,-3.52
1964.19,-3.40
1983.83,-3.20
2003.67,-2.93
2023.71,-2.59
2043.94,-2.20
2064.38,-1.80
2085.03,-1.39
2105.88,-0.99
2126.94,-0.59
2148.20,-0.22
2169.69,0.15
2191.38,0.52
2213.30,0.90
2235.43,1.28
2257.78,1.64
2280.36,1.99
2303.17,2.32
2326.20,2.61
2349.46,2.87
2372.95,3.12
2396.68,3.37
2420.65,3.68
2444.86,4.04
2469.31,4.43
2494.00,4.86
2518.94,5.28
2544.13,5.69
2569.57,6.08
2595.27,6.45
2621.22,6.82
2647.43,7.17
2673.90,7.49
2700.64,7.80
2727.65,8.06
2754.93,8.30
2782.48,8.48
2810.30,8.64
2838.40,8.76
2866.79,8.83
2895.46,8.88
2924.41,8.88
2953.65,8.86
2983.19,8.79
3013.02,8.70
3043.15,8.57
3073.58,8.41
3104.32,8.23
3135.36,8.07
3166.72,7.91
3198.38,7.73
3230.37,7.56
3262.67,7.40
3295.30,7.27
3328.25,7.16
3361.53,7.08
3395.15,7.05
3429.10,7.04
3463.39,7.06
3498.03,7.10
3533.01,7.17
3568.34,7.25
3604.02,7.31
3640.06,7.36
3676.46,7.38
3713.22,7.37
3750.36,7.32
3787.86,7.24
3825.74,7.14
3864.00,7.00
3902.64,6.79
3941.66,6.57
3981.08,6.30
4020.89,6.00
4061.10,5.68
4101.71,5.34
4142.73,5.01
4184.15,4.70
4226.00,4.43
4268.26,4.24
4310.94,4.15
4354.05,4.29
4397.59,4.59
4441.56,4.98
4485.98,5.50
4530.84,6.01
4576.15,6.44
4621.91,6.82
4668.13,7.08
4714.81,7.27
4761.96,7.41
4809.58,7.48
4857.67,7.52
4906.25,7.53
4955.31,7.54
5004.87,7.57
5054.91,7.63
5105.46,7.70
5156.52,7.80
5208.08,7.94
5260.16,8.12
5312.77,8.31
5365.89,8.53
5419.55,8.75
5473.75,8.95
5528.49,9.13
5583.77,9.26
5639.61,9.30
5696.00,9.32
5752.96,9.17
5810.49,9.00
5868.60,8.76
5927.28,8.49
5986.56,8.21
6046.42,7.87
6106.89,7.47
6167.96,6.99
6229.64,6.42
6291.93,5.76
6354.85,4.99
6418.40,4.16
6482.58,3.25
6547.41,2.21
6612.88,1.08
6679.01,-0.26
6745.80,-1.85
6813.26,-3.65
6881.39,-5.85
6950.21,-8.61
7019.71,-12.21
7089.91,-17.43
7160.81,-21.04
7232.41,-21.55
7304.74,-18.51
7377.79,-13.96
7451.56,-10.48
7526.08,-7.80
7601.34,-5.78
7677.35,-4.24
7754.13,-2.89
7831.67,-2.02
7909.98,-1.35
7989.08,-1.01
8068.98,-1.17
8149.67,-1.57
8231.16,-2.25
8313.47,-3.21
8396.61,-4.35
8480.57,-5.93
8565.38,-8.31
8651.03,-10.86
8737.54,-13.24
8824.92,-15.32
8913.17,-13.92
9002.30,-11.25
9092.32,-12.45
9183.25,-15.28
9275.08,-18.22
9367.83,-19.53
9461.51,-18.32
9556.12,-15.82
9651.68,-13.12
9748.20,-11.30
9845.68,-10.17
9944.14,-9.26
10043.58,-8.56
10144.02,-7.96
10245.46,-7.40
10347.91,-6.90
10451.39,-6.49
10555.91,-6.38
10661.46,-6.40
10768.08,-6.51
10875.76,-6.67
10984.52,-6.90
11094.36,-7.18
11205.31,-7.59
11317.36,-8.38
11430.53,-9.48
11544.84,-11.59
11660.29,-14.66
11776.89,-17.32
11894.66,-17.60
12013.60,-17.40
12133.74,-16.60
12255.08,-15.34
12377.63,-13.97
12501.41,-12.77
12626.42,-11.86
12752.68,-11.19
12880.21,-10.86
13009.01,-10.70
13139.10,-10.53
13270.49,-10.67
13403.20,-10.95
13537.23,-11.49
13672.60,-12.46
13809.33,-13.88
13947.42,-16.15
14086.90,-15.47
14227.77,-13.00
14370.04,-10.33
14513.74,-7.62
14658.88,-6.40
14805.47,-5.38
14953.52,-4.68
15103.06,-3.95
15254.09,-3.20
15406.63,-2.19
15560.70,-1.05
15716.30,0.31
15873.47,1.96
16032.20,3.53
16192.52,4.44
16354.45,4.09
16517.99,2.92
16683.17,0.75
16850.01,-1.30
17018.51,-3.09
17188.69,-3.29
17360.58,-2.67
17534.18,-1.61
17709.53,-0.59
17886.62,0.01
18065.49,-0.02
18246.14,-0.94
18428.60,-2.50
18612.89,-3.66
18799.02,-4.52
18987.01,-5.31
19176.88,-6.58
19368.65,-8.27
19562.33,-10.72
19757.96,-14.24
19955.54,-17.77
