frequency,raw
20.00,-7.05
20.20,-6.96
20.40,-6.87
20.61,-6.79
20.81,-6.72
21.02,-6.67
21.23,-6.62
21.44,-6.57
21.66,-6.51
21.87,-6.43
22.09,-6.33
22.31,-6.22
22.54,-6.09
22.76,-5.96
22.99,-5.84
23.22,-5.74
23.45,-5.66
23.69,-5.60
23.92,-5.56
24.16,-5.54
24.40,-5.52
24.65,-5.50
24.89,-5.48
25.14,-5.43
25.39,-5.37
25.65,-5.28
25.91,-5.19
26.16,-5.08
26.43,-4.98
26.69,-4.87
26.96,-4.77
27.23,-4.68
27.50,-4.60
27.77,-4.52
28.05,-4.46
28.33,-4.41
28.62,-4.36
28.90,-4.31
29.19,-4.27
29.48,-4.22
29.78,-4.18
30.08,-4.12
30.38,-4.07
30.68,-4.01
30.99,-3.95
31.30,-3.90
31.61,-3.85
31.93,-3.80
32.24,-3.75
32.57,-3.70
32.89,-3.65
33.22,-3.59
33.55,-3.53
33.89,-3.47
34.23,-3.41
34.57,-3.35
34.92,-3.29
35.27,-3.25
35.62,-3.21
35.97,-3.17
36.33,-3.13
36.70,-3.08
37.06,-3.03
37.43,-2.98
37.81,-2.93
38.19,-2.89
38.57,-2.86
38.95,-2.82
39.34,-2.78
39.74,-2.74
40.14,-2.69
40.54,-2.65
40.94,-2.62
41.35,-2.59
41.76,-2.55
42.18,-2.49
42.60,-2.44
43.03,-2.39
43.46,-2.36
43.90,-2.33
44.33,-2.30
44.78,-2.25
45.23,-2.20
45.68,-2.16
46.13,-2.13
46.60,-2.13
47.06,-2.12
47.53,-2.11
48.01,-2.09
48.49,-2.06
48.97,-2.02
49.46,-1.99
49.96,-1.97
50.46,-1.94
50.96,-1.92
51.47,-1.90
51.99,-1.88
52.51,-1.86
53.03,-1.83
53.56,-1.81
54.10,-1.78
54.64,-1.75
55.18,-1.73
55.74,-1.69
56.29,-1.67
56.86,-1.65
57.42,-1.63
58.00,-1.61
58.58,-1.59
59.16,-1.58
59.76,-1.59
60.35,-1.57
60.96,-1.54
61.57,-1.52
62.18,-1.51
62.80,-1.49
63.43,-1.47
64.07,-1.45
64.71,-1.44
65.35,-1.43
66.01,-1.41
66.67,-1.39
67.33,-1.38
68.01,-1.35
68.69,-1.32
69.37,-1.30
70.07,-1.28
70.77,-1.25
71.48,-1.23
72.19,-1.22
72.91,-1.21
73.64,-1.19
74.38,-1.18
75.12,-1.16
75.87,-1.14
76.63,-1.12
77.40,-1.10
78.17,-1.08
78.95,-1.06
79.74,-1.04
80.54,-1.02
81.35,-1.00
82.16,-0.99
82.98,-0.98
83.81,-0.95
84.65,-0.94
85.50,-0.92
86.35,-0.90
87.22,-0.89
88.09,-0.88
88.97,-0.87
89.86,-0.88
90.76,-0.87
91.66,-0.85
92.58,-0.84
93.51,-0.85
94.44,-0.84
95.39,-0.83
96.34,-0.80
97.30,-0.81
98.28,-0.81
99.26,-0.81
100.25,-0.81
101.25,-0.81
102.27,-0.81
103.29,-0.80
104.32,-0.79
105.37,-0.79
106.42,-0.79
107.48,-0.79
108.56,-0.79
109.64,-0.78
110.74,-0.78
111.85,-0.78
112.97,-0.78
114.10,-0.78
115.24,-0.77
116.39,-0.77
117.55,-0.77
118.73,-0.74
119.92,-0.71
121.12,-0.73
122.33,-0.79
123.55,-0.77
124.79,-0.77
126.03,-0.77
127.29,-0.77
128.57,-0.76
129.85,-0.76
131.15,-0.76
132.46,-0.76
133.79,-0.77
135.12,-0.79
136.48,-0.80
137.84,-0.82
139.22,-0.83
140.61,-0.85
142.02,-0.88
143.44,-0.91
144.87,-0.92
146.32,-0.93
147.78,-0.94
149.26,-0.95
150.75,-0.97
152.26,-0.99
153.78,-1.00
155.32,-1.01
156.88,-1.02
158.44,-1.03
160.03,-1.04
161.63,-1.04
163.24,-1.04
164.88,-1.05
166.53,-1.06
168.19,-1.07
169.87,-1.08
171.57,-1.08
173.29,-1.09
175.02,-1.10
176.77,-1.10
178.54,-1.06
180.32,-1.03
182.13,-1.12
183.95,-1.15
185.79,-1.17
187.65,-1.18
189.52,-1.20
191.42,-1.23
193.33,-1.26
195.27,-1.28
197.22,-1.30
199.19,-1.33
201.18,-1.36
203.19,-1.38
205.23,-1.40
207.28,-1.43
209.35,-1.46
211.44,-1.50
213.56,-1.53
215.69,-1.55
217.85,-1.57
220.03,-1.58
222.23,-1.59
224.45,-1.61
226.70,-1.61
228.96,-1.61
231.25,-1.62
233.57,-1.63
235.90,-1.63
238.26,-1.61
240.64,-1.60
243.05,-1.64
245.48,-1.65
247.93,-1.65
250.41,-1.66
252.92,-1.65
255.45,-1.65
258.00,-1.65
260.58,-1.67
263.19,-1.68
265.82,-1.71
268.48,-1.74
271.16,-1.75
273.87,-1.79
276.61,-1.83
279.38,-1.84
282.17,-1.87
284.99,-1.90
287.84,-1.92
290.72,-1.93
293.63,-1.95
296.57,-1.97
299.53,-1.98
302.53,-1.98
305.55,-1.98
308.61,-1.98
311.69,-1.97
314.81,-1.96
317.96,-1.98
321.14,-1.99
324.35,-1.97
327.59,-1.95
330.87,-1.94
334.18,-1.94
337.52,-1.93
340.90,-1.93
344.30,-1.94
347.75,-1.96
351.23,-2.00
354.74,-2.04
358.28,-2.09
361.87,-2.08
365.49,-2.05
369.14,-2.03
372.83,-2.01
376.56,-1.99
380.33,-1.97
384.13,-1.97
387.97,-1.98
391.85,-2.00
395.77,-2.02
399.73,-2.06
403.72,-2.06
407.76,-2.07
411.84,-2.09
415.96,-2.12
420.12,-2.15
424.32,-2.18
428.56,-2.20
432.85,-2.22
437.18,-2.24
441.55,-2.28
445.96,-2.30
450.42,-2.31
454.93,-2.37
459.48,-2.43
464.07,-2.48
468.71,-2.50
473.40,-2.51
478.13,-2.54
482.91,-2.58
487.74,-2.61
492.62,-2.65
497.55,-2.68
502.52,-2.71
507.55,-2.74
512.62,-2.78
517.75,-2.81
522.93,-2.82
528.16,-2.83
533.44,-2.85
538.77,-2.87
544.16,-2.90
549.60,-2.93
555.10,-2.95
560.65,-2.98
566.25,-3.01
571.92,-3.03
577.64,-3.05
583.41,-3.09
589.25,-3.14
595.14,-3.15
601.09,-3.15
607.10,-3.15
613.17,-3.16
619.30,-3.15
625.50,-3.15
631.75,-3.15
638.07,-3.15
644.45,-3.14
650.89,-3.13
657.40,-3.13
663.98,-3.14
670.62,-3.14
677.32,-3.07
684.10,-3.01
690.94,-2.97
697.85,-2.92
704.83,-2.84
711.87,-2.75
718.99,-2.64
726.18,-2.54
733.44,-2.44
740.78,-2.34
748.19,-2.18
755.67,-2.06
763.23,-1.95
770.86,-1.89
778.57,-1.80
786.35,-1.67
794.22,-1.57
802.16,-1.47
810.18,-1.36
818.28,-1.26
826.46,-1.17
834.73,-1.08
843.08,-0.98
851.51,-0.89
860.02,-0.81
868.62,-0.66
877.31,-0.51
886.08,-0.44
894.94,-0.40
903.89,-0.36
912.93,-0.35
922.06,-0.32
931.28,-0.30
940.59,-0.26
950.00,-0.17
959.50,-0.10
969.09,-0.04
978.78,-0.01
988.57,-0.03
998.46,0.01
1008.44,-0.04
1018.53,-0.09
1028.71,-0.16
1039.00,-0.21
1049.39,-0.26
1059.88,-0.32
1070.48,-0.37
1081.19,-0.34
1092.00,-0.26
1102.92,-0.24
1113.95,-0.17
1125.09,-0.09
1136.34,-0.03
1147.70,0.02
1159.18,0.08
1170.77,0.15
1182.48,0.14
1194.30,0.31
1206.25,0.48
1218.31,0.56
1230.49,0.73
1242.80,0.90
1255.22,1.08
1267.78,1.19
1280.45,1.12
1293.26,1.23
1306.19,1.33
1319.25,1.40
1332.45,1.50
1345.77,1.53
1359.23,1.46
1372.82,1.68
1386.55,1.76
1400.41,1.66
1414.42,1.71
1428.56,1.75
1442.85,1.78
1457.28,1.81
1471.85,1.84
1486.57,1.78
1501.43,1.71
1516.45,1.77
1531.61,1.80
1546.93,1.79
1562.40,1.78
1578.02,1.77
1593.80,1.73
1609.74,1.61
1625.84,1.44
1642.10,1.18
1658.52,0.93
1675.10,0.69
1691.85,0.35
1708.77,-0.11
1725.86,-0.69
1743.12,-1.22
1760.55,-1.94
1778.15,-2.76
1795.94,-3.43
1813.90,-4.19
1832.03,-4.96
1850.36,-5.73
1868.86,-6.29
1887.55,-6.80
1906.42,-7.23
1925.49,-7.53
1944.74,-7.43
1964.19,-7.33
1983.83,-7.14
2003.67,-6.77
2023.71,-6.17
2043.94,-5.61
2064.38,-5.05
2085.03,-4.42
2105.88,-3.87
2126.94,-3.34
2148.20,-2.81
2169.69,-2.29
2191.38,-1.78
2213.30,-1.26
2235.43,-0.71
2257.78,-0.16
2280.36,0.38
2303.17,0.89
2326.20,1.37
2349.46,1.77
2372.95,2.21
2396.68,2.70
2420.65,3.14
2444.86,3.63
2469.31,4.17
2494.00,4.72
2518.94,5.18
2544.13,5.63
2569.57,6.09
2595.27,6.56
2621.22,7.01
2647.43,7.44
2673.90,7.86
2700.64,8.25
2727.65,8.59
2754.93,8.93
2782.48,9.19
2810.30,9.43
2838.40,9.67
2866.79,9.86
2895.46,10.03
2924.41,10.14
2953.65,10.23
2983.19,10.29
3013.02,10.30
3043.15,10.25
3073.58,10.15
3104.32,10.00
3135.36,9.86
3166.72,9.70
3198.38,9.54
3230.37,9.34
3262.67,9.12
3295.30,8.89
3328.25,8.64
3361.53,8.39
3395.15,8.16
3429.10,7.91
3463.39,7.64
3498.03,7.35
3533.01,7.13
3568.34,6.91
3604.02,6.69
3640.06,6.45
3676.46,6.22
3713.22,6.00
3750.36,5.78
3787.86,5.56
3825.74,5.34
3864.00,5.14
3902.64,4.93
3941.66,4.72
3981.08,4.50
4020.89,4.29
4061.10,4.10
4101.71,3.90
4142.73,3.70
4184.15,3.50
4226.00,3.35
4268.26,3.27
4310.94,3.31
4354.05,3.58
4397.59,4.00
4441.56,4.50
4485.98,5.14
4530.84,5.76
4576.15,6.30
4621.91,6.78
4668.13,7.11
4714.81,7.36
4761.96,7.55
4809.58,7.65
4857.67,7.71
4906.25,7.74
4955.31,7.77
5004.87,7.82
5054.91,7.89
5105.46,7.99
5156.52,8.12
5208.08,8.31
5260.16,8.52
5312.77,8.76
5365.89,9.02
5419.55,9.29
5473.75,9.56
5528.49,9.81
5583.77,10.00
5639.61,10.08
5696.00,10.11
5752.96,9.91
5810.49,9.65
5868.60,9.22
5927.28,8.75
5986.56,8.21
6046.42,7.62
6106.89,6.99
6167.96,6.33
6229.64,5.66
6291.93,4.98
6354.85,4.28
6418.40,3.58
6482.58,2.86
6547.41,2.10
6612.88,1.28
6679.01,0.34
6745.80,-0.73
6813.26,-1.89
6881.39,-3.18
6950.21,-4.50
7019.71,-5.83
7089.91,-7.11
7160.81,-8.30
7232.41,-9.32
7304.74,-10.15
7377.79,-10.36
7451.56,-9.89
7526.08,-8.84
7601.34,-7.25
7677.35,-5.50
7754.13,-3.72
7831.67,-2.30
7909.98,-1.19
7989.08,-0.55
8068.98,-0.50
8149.67,-0.76
8231.16,-1.39
8313.47,-2.21
8396.61,-3.10
8480.57,-4.04
8565.38,-5.10
8651.03,-5.97
8737.54,-6.46
8824.92,-5.88
8913.17,-5.45
9002.30,-5.22
9092.32,-7.31
9183.25,-11.54
9275.08,-16.50
9367.83,-20.95
9461.51,-16.69
9556.12,-12.79
9651.68,-10.37
9748.20,-8.64
9845.68,-7.30
9944.14,-6.16
10043.58,-5.20
10144.02,-4.37
10245.46,-3.73
10347.91,-3.22
10451.39,-2.91
10555.91,-3.13
10661.46,-3.87
10768.08,-5.06
10875.76,-6.58
10984.52,-7.96
11094.36,-9.17
11205.31,-10.12
11317.36,-10.80
11430.53,-11.42
11544.84,-11.89
11660.29,-12.27
11776.89,-12.57
11894.66,-13.16
12013.60,-13.84
12133.74,-14.81
12255.08,-15.39
12377.63,-15.28
12501.41,-14.39
12626.42,-13.19
12752.68,-12.22
12880.21,-11.68
13009.01,-11.34
13139.10,-11.01
13270.49,-11.00
13403.20,-11.09
13537.23,-11.42
13672.60,-12.11
13809.33,-13.15
13947.42,-14.88
14086.90,-14.92
14227.77,-13.94
14370.04,-12.07
14513.74,-9.40
14658.88,-7.90
14805.47,-6.59
14953.52,-5.60
15103.06,-4.40
15254.09,-3.12
15406.63,-1.78
15560.70,-0.42
15716.30,0.95
15873.47,2.50
16032.20,3.99
16192.52,5.09
16354.45,5.06
16517.99,4.23
16683.17,2.08
16850.01,-0.06
17018.51,-2.05
17188.69,-2.83
17360.58,-2.69
17534.18,-2.02
17709.53,-1.25
17886.62,-1.06
18065.49,-1.36
18246.14,-2.21
18428.60,-3.21
18612.89,-3.97
18799.02,-4.60
18987.01,-5.34
19176.88,-6.51
19368.65,-7.87
19562.33,-9.57
19757.96,-11.80
19955.54,-14.02
